2338,0,0
2321,1375,1398
2275,1390,1391
2289,1377,1397
2389,1377,1395
2662,1379,1407
3725,1386,1396
3600,1376,1402
2413,1381,1392
1987,1366,1401
2026,1387,1393
2025,1374,1399
2028,1381,1400
2071,1377,1415
2096,1378,1397
2105,1367,1405
2132,1385,1390
2150,1375,1398
2184,1381,1398
2170,1376,1400
2261,1373,1394
2277,1380,1409
2267,1380,1393
2305,1376,1404
2289,1373,1395
2288,1370,1405
2271,1371,1396
2224,1372,1399
2173,1377,1399
2139,1376,1399
2173,1378,1401
2098,1380,1397
2090,1381,1401
2018,1380,1399
1968,1378,1393
2017,1373,1402
1969,1371,1401
2017,1371,1389
2004,1367,1400
2069,1378,1402
2064,1368,1402
2036,1369,1397
2021,1364,1397
2047,1379,1393
2010,1370,1404
2043,1375,1392
2079,1374,1401
2032,1372,1396
2070,1364,1408
2067,1380,1390
1993,1375,1402
2022,1371,1396
2077,1367,1404
2075,1374,1394
2158,1368,1403
2186,1384,1395
2110,1372,1395
2044,1378,1383
2032,1371,1399
1995,1375,1394
2063,1372,1398
2019,1376,1389
2026,1377,1395
2015,1375,1394
2063,1373,1400
2195,1378,1390
2511,1370,1398
3696,1380,1396
3217,1368,1394
2197,1382,1391
1857,1378,1394
1872,1368,1399
1911,1371,1399
1967,1375,1398
2119,1373,1393
2128,1371,1392
2117,1369,1398
2143,1374,1392
2144,1374,1396
2192,1374,1392
2189,1373,1396
2145,1378,1390
2215,1374,1394
2253,1372,1396
2205,1372,1392
2195,1363,1399
2222,1375,1390
2174,1373,1397
2121,1385,1388
2107,1374,1398
2023,1376,1393
2000,1372,1391
1979,1375,1389
1950,1371,1398
1963,1377,1394
1942,1371,1398
1936,1372,1400
1968,1358,1401
2003,1378,1390
2000,1372,1400
2037,1379,1399
2021,1367,1399
2059,1370,1391
2109,1373,1397
2081,1380,1394
2101,1362,1402
2120,1373,1395
2025,1374,1391
2006,1371,1399
2043,1374,1387
2126,1372,1406
2114,1378,1387
2096,1365,1405
2102,1382,1400
2179,1369,1400
2175,1374,1395
2239,1369,1402
2131,1382,1392
1983,1364,1401
2074,1373,1391
2042,1377,1402
2071,1378,1393
2080,1365,1399
2055,1377,1394
2047,1367,1397
2074,1375,1391
2439,1364,1400
3327,1383,1392
3819,1369,1396
2451,1376,1390
1936,1363,1405
1936,1377,1391
1891,1376,1395
1911,1376,1394
1951,1369,1394
1978,1385,1394
2039,1380,1398
2029,1379,1396
2079,1369,1401
2111,1380,1388
2155,1376,1397
2221,1371,1399
2122,1373,1405
2234,1372,1401
2212,1380,1402
2250,1383,1402
2225,1376,1395
2098,1369,1396
2225,1382,1403
2131,1378,1398
2096,1379,1407
2090,1380,1399
1945,1384,1400
1984,1378,1396
1935,1378,1401
1907,1381,1391
1919,1381,1398
1930,1376,1406
1994,1382,1402
1904,1375,1394
1873,1386,1401
1903,1381,1401
1867,1378,1402
1919,1375,1405
1887,1374,1402
1873,1384,1405
1907,1375,1401
1891,1384,1405
1998,1375,1406
1985,1378,1403
1964,1380,1409
1919,1382,1402
1856,1382,1402
1989,1385,1399
1910,1381,1403
1977,1375,1416
1998,1386,1401
2097,1384,1410
2141,1383,1403
2086,1374,1413
2096,1389,1406
2071,1385,1416
1917,1393,1404
1971,1380,1413
2039,1385,1406
2085,1389,1419
1975,1398,1411
2037,1393,1415
2160,1403,1424
2339,1396,1430
2931,1407,1438
3891,1412,1443
2613,1418,1446
1949,1426,1467
1812,1431,1464
1863,1438,1482
1915,1455,1491
1933,1467,1521
1895,1490,1535
2039,1512,1568
2007,1533,1589
2096,1570,1634
2071,1606,1679
2047,1645,1729
2105,1700,1788
2179,1757,1861
2172,1823,1935
2143,1891,2007
2160,1976,2116
2193,2067,2219
2129,2175,2339
2138,2276,2488
2089,2415,2639
2143,2575,2829
2063,2758,3046
2117,2956,3281
2000,3172,3537
1968,3393,3799
2038,3627,4083
1907,3874,4386
2065,4167,4743
1973,4530,5172
1967,4964,5699
2101,5420,6248
1982,5852,6745
2002,6207,7184
1998,6528,7549
1922,6803,7900
2032,7105,8268
1973,7469,8722
2030,7927,9286
2000,8383,9857
1986,8802,10351
1943,9186,10817
1968,9505,11204
1968,9806,11612
2013,10173,12087
1966,10695,12765
2122,11460,13745
2087,12411,14938
2157,13566,16382
2115,14853,17971
1949,16112,19514
2047,17326,21052
1934,18552,22583
1919,19993,24412
1878,21706,26562
1875,23667,29038
1909,25826,31707
1999,27934,34315
2027,30144,37065
2262,32027,39275
2740,33052,40479
3627,33473,40943
2459,33664,41243
1870,34472,42405
1784,36441,45002
1776,38790,47893
1813,40977,50614
1875,42707,52719
1866,44334,54818
1895,46545,57609
1878,49812,61842
1948,54672,67971
2066,60935,75826
1904,68778,85490
2016,77205,95653
2042,85658,105992
2003,93716,115552
2071,101389,124518
2073,107792,131651
2165,111757,135929
2096,113142,137146
2089,112174,135905
2078,110472,133953
2081,108915,132305
2023,109028,132863
1959,111583,136264
1937,115473,141094
1877,118214,144256
1930,118793,145051
1902,118678,145104
1875,118267,144894
1900,120360,148000
1953,126940,156326
1947,137386,168974
1967,149005,182224
1941,157772,191347
2025,163113,195920
2031,165475,196871
2031,165854,195470
2016,165007,192936
1978,163887,190434
2027,162592,187961
2030,161417,185968
2047,160578,184869
2000,159864,183887
1968,159210,182715
2003,158616,181336
2016,158127,179884
2069,157795,178641
2113,157604,177808
2155,157361,176745
2114,156711,174558
1953,155172,170711
1979,155243,168623
1958,157751,169993
1840,160878,172347
1898,162826,173740
1889,163663,174373
1917,164483,175188
1948,165905,176539
2077,168181,178612
2347,171543,181521
3163,175468,184662
3309,179784,187968
2269,184229,191180
1730,188254,193942
1747,191840,196301
1831,195142,198378
1772,198415,200561
1831,201585,202657
1881,204491,204545
1867,206787,205975
1840,208409,206965
1987,209726,207804
1970,210955,208630
2032,212141,209426
1974,213216,210165
2101,214181,210821
2011,214999,211303
2128,215483,211552
2151,215764,211670
2135,215915,211742
2113,216013,211774
2096,216075,211813
2118,216126,211875
2059,216137,211920
1947,216126,211999
1928,216105,212066
1928,216060,212104
1903,215992,212126
1910,215969,212207
1889,216062,212331
1950,216186,212451
1931,216316,212543
1941,216491,212691
1965,216704,212857
1975,217015,213027
1993,217359,213195
2022,217649,213381
1959,217893,213490
2081,218051,213591
2002,218274,213700
1966,218500,213863
1984,218764,213984
2013,218985,214118
1993,219207,214224
1977,219410,214342
2021,219561,214413
2037,219737,214512
2094,219876,214578
2054,220005,214662
2059,220129,214711
2091,220213,214767
1984,220240,214767
1894,220212,214750
1920,220155,214711
1838,220063,214632
1887,219898,214526
1893,219665,214364
1904,219296,214092
1819,218856,213831
1877,218589,213718
2179,218407,213575
2853,218019,213267
3451,217643,213024
2486,217341,212795
1795,216936,212422
1727,216268,211814
1744,215469,211039
1759,214248,209673
1805,211373,206379
1739,207181,202486
1870,201829,200940
1963,197720,201152
1978,195094,204383
2001,194808,211247
1991,192038,212760
1978,189061,210620
2112,184887,200912
2123,173388,181319
2198,176302,184297
2162,181308,189048
2196,183029,190606
2182,183896,191699
2138,185375,193436
2106,186442,194690
2124,186716,195131
2013,186253,194858
1962,185133,194070
1964,183904,193263
1989,182774,192617
1967,181761,192019
2009,180528,191197
1978,179175,190223
1989,177385,188724
1970,175196,186869
1990,172422,184353
2090,169666,182083
2081,167945,180734
2103,166713,179795
2083,165512,178816
2060,163856,177387
2030,162322,176235
2086,161428,175667
2035,161371,175997
2045,163406,178621
2064,168107,183183
2001,173017,187270
2077,178037,191022
2131,182431,193900
2197,186149,196246
2198,189595,198312
2300,192835,200171
2175,195230,201533
2022,196960,202493
2045,198307,203272
0,199409,203843
0,200183,204264
0,200854,204595
0,201395,204853
0,201791,205050
0,202166,205254
0,202618,205500
0,203094,205741
0,203514,205941
0,203797,206069
0,203980,206155
0,204136,206204
0,204258,206245
0,204359,206287
0,204464,206330
0,204557,206373
0,204656,206417
0,204787,206474
0,204962,206543
0,205122,206621
0,205291,206684
0,205420,206758
0,205558,206817
0,205733,206886
0,205899,206952
0,206083,207049
0,206252,207100
0,206343,207152
0,206363,207141
0,206286,207099
0,206115,207008
0,205901,206888
0,205589,206752
0,205205,206583
0,204869,206420
577,204547,206269
483,204312,206173
462,204165,206121
569,204103,206094
649,204108,206114
720,204164,206139
787,204228,206177
844,204293,206209
913,204377,206261
961,204466,206300
1008,204526,206307
1063,204566,206314
1111,204601,206332
1148,204659,206341
1227,204717,206373
1579,204793,206403
1909,204861,206430
2320,204897,206435
2882,204923,206440
3565,204931,206428
4095,204907,206412
4095,204896,206388
4095,204840,206365
4095,204798,206340
4095,204735,206297
4095,204667,206277
4095,204581,206225
4095,204504,206179
4095,204440,206147
4095,204410,206127
4095,204409,206138
4095,204420,206115
4095,204389,206102
4095,204320,206060
4095,204260,206036
4095,204205,205987
4095,204175,205975
4095,204189,205974
4095,204236,205985
4095,204260,205995
4095,204231,205960
4095,204175,205934
4095,204130,205904
4095,204068,205857
4095,203991,205831
4095,203929,205787
4095,203871,205745
4095,203824,205719
4095,203836,205721
4095,203874,205731
4095,203944,205763
4095,204036,205783
4095,204121,205827
4095,204163,205832
4095,204130,205812
4095,203974,205718
4095,203711,205582
4095,203327,205385
4095,202907,205190
4095,202518,205012
4095,202183,204862
4048,201879,204717
3699,201628,204591
3472,201485,204533
3329,201453,204526
3307,201490,204549
3141,201566,204586
3125,201672,204645
3037,201788,204693
2993,201912,204753
2903,202042,204813
2823,202187,204882
2744,202315,204953
2606,202437,204995
2538,202571,205051
2496,202696,205125
2483,202842,205181
2476,202949,205223
2469,203046,205244
2439,203115,205285
2334,203170,205303
2268,203197,205317
2256,203205,205306
2145,203201,205303
1991,203189,205284
1989,203164,205280
1911,203143,205259
1920,203129,205269
1831,203146,205255
1887,203155,205272
1853,203196,205277
2166,203222,205297
2960,203259,205299
3049,203317,205334
2129,203402,205367
1450,203505,205418
1443,203610,205455
1462,203699,205494
1453,203767,205519
1443,203817,205539
1535,203873,205565
1509,203909,205577
1589,203967,205599
1562,204049,205636
1553,204142,205664
1600,204222,205711
1595,204327,205738
1645,204413,205786
1675,204496,205815
1708,204555,205840
1712,204635,205873
1631,204672,205879
1681,204622,205849
1617,204504,205782
1499,204307,205672
1568,204069,205557
1490,203767,205412
1504,203459,205262
1456,203143,205125
1417,202875,204975
1424,202603,204873
1441,202411,204779
1443,202279,204738
1457,202228,204701
1501,202244,204730
1520,202304,204735
1498,202337,204755
1439,202402,204777
1565,202448,204807
1491,202505,204819
1555,202549,204851
1522,202617,204869
1582,202696,204908
1516,202796,204961
1535,202932,205017
1585,203084,205082
1554,203203,205150
1632,203280,205177
1699,203309,205185
1715,203311,205169
1646,203299,205160
1607,203260,205135
1535,203226,205111
1535,203196,205093
1575,203152,205070
1573,203142,205068
1535,203128,205066
1597,203109,205031
1615,203096,205030
1837,203066,205004
2271,203025,204996
3221,203012,204976
2519,203001,204970
1587,203034,204975
1375,203064,204990
1379,203119,205002
1471,203164,205014
1559,203193,205041
1488,203221,205038
1611,203235,205041
1600,203259,205031
1607,203283,205051
1607,203320,205050
1703,203361,205066
1622,203376,205067
1748,203362,205049
1737,203354,205039
1668,203345,205034
1731,203358,205023
1793,203348,205024
1727,203290,204972
1687,203133,204883
1771,202906,204753
1683,202607,204611
1667,202252,204430
1691,201845,204221
1666,201425,204004
1648,201021,203831
1715,200712,203673
1679,200450,203569
1739,200271,203465
1733,200124,203409
1793,200011,203340
1777,199966,203330
1776,199973,203331
1903,200010,203350
1794,200031,203340
1813,200040,203356
1862,200041,203336
1785,200061,203334
1827,200102,203360
1882,200192,203402
1770,200310,203452
1892,200452,203515
1826,200614,203592
1855,200719,203634
1898,200800,203668
1951,200864,203701
1935,200917,203710
1861,200970,203737
1836,201042,203768
1886,201108,203793
1784,201160,203831
1859,201223,203857
1818,201304,203879
1809,201368,203915
1843,201435,203940
1913,201494,203970
2141,201549,203997
2761,201621,204024
3545,201705,204065
2501,201818,204117
1775,201940,204170
1574,202060,204218
1632,202177,204285
1657,202289,204329
1645,202390,204379
1717,202535,204440
1783,202651,204508
1803,202777,204547
1809,202896,204617
1792,203026,204658
1872,203147,204727
1866,203294,204792
1911,203431,204858
1902,203582,204904
1963,203646,204947
2026,203730,204976
1962,203794,205006
1997,203827,205003
1941,203781,204976
1918,203659,204902
1904,203440,204811
1830,203159,204659
1824,202861,204514
1911,202533,204362
1794,202212,204218
1782,201923,204097
1821,201727,204004
1767,201561,203941
1805,201470,203887
1771,201433,203890
1863,201444,203887
1798,201489,203918
1863,201572,203942
1948,201612,203982
1922,201669,203991
1868,201730,204029
1857,201821,204075
1875,201892,204118
1943,201984,204143
1934,202081,204202
1904,202175,204241
1948,202275,204298
0,202397,204342
0,202478,204387
0,202498,204394
0,202500,204386
0,202512,204378
0,202510,204388
0,202516,204393
0,202533,204394
0,202554,204409
0,202602,204438
0,202691,204479
0,202794,204542
0,202937,204621
0,203127,204703
0,203284,204768
0,203428,204842
0,203571,204905
0,203686,204960
0,203804,205014
0,203922,205074
641,204032,205117
560,204146,205166
623,204245,205206
720,204345,205245
784,204430,205306
850,204541,205347
927,204639,205399
969,204718,205421
1021,204768,205453
1070,204854,205490
1115,204959,205536
1155,205057,205579
1200,205117,205606
1232,205156,205617
1434,205170,205629
1999,205136,205588
2599,205035,205542
3120,204839,205438
3739,204580,205287
4095,204243,205134
4095,203884,204956
4095,203489,204803
4095,203111,204598
4095,202736,204441
4095,202425,204295
4095,202187,204200
4095,202049,204136
4095,201977,204120
4095,201972,204100
4095,201969,204136
4095,202031,204148
4095,202042,204159
4095,202058,204148
4095,202093,204183
4095,202171,204210
4095,202242,204255
4095,202322,204283
4095,202408,204335
4095,202478,204354
4095,202497,204369
4095,202487,204347
4095,202445,204334
4095,202408,204289
4095,202362,204283
4095,202340,204268
4095,202311,204265
4095,202295,204231
4095,202267,204231
4095,202238,204200
0,202179,204189
0,202122,204147
0,202092,204119
0,202065,204119
0,202055,204112
0,202036,204102
0,202009,204082
0,201963,204052
0,201936,204028
0,201945,204036
640,201993,204060
641,202039,204063
738,202075,204077
822,202070,204056
891,202055,204037
944,202052,204032
999,202069,204039
1056,202104,204059
1095,202154,204080
1146,202187,204118
1187,202276,204133
1223,202347,204177
1261,202444,204210
1290,202525,204259
1427,202578,204273
2081,202543,204245
2807,202419,204166
3632,202193,204054
4095,201872,203879
4095,201488,203707
4095,201144,203524
4095,200748,203361
4095,200381,203161
4095,200019,203019
4095,199724,202873
4095,199492,202770
4095,199387,202715
4095,199348,202702
4095,199342,202689
4095,199352,202711
4095,199422,202728
4095,199528,202777
4095,199638,202840
4095,199789,202918
4095,199918,202998
4095,200062,203059
4095,200222,203144
4095,200397,203213
4095,200588,203280
4095,200720,203342
4095,200856,203401
4095,200971,203455
4095,201056,203476
4095,201138,203515
4095,201278,203562
4095,201425,203633
4095,201571,203699
4095,201716,203773
4095,201841,203823
4095,201899,203845
4095,201966,203882
4095,202090,203939
4095,202270,204033
4095,202468,204100
4095,202587,204169
4095,202685,204211
4095,202790,204274
4095,202910,204315
4095,203018,204384
4095,203156,204432
3711,203277,204488
3237,203404,204540
3011,203512,204612
3056,203640,204653
3123,203760,204723
3019,203893,204768
2958,203997,204833
2903,204082,204869
2842,204158,204909
2887,204242,204939
2786,204331,205002
2704,204460,205041
2786,204583,205110
2681,204705,205158
2687,204815,205216
2641,204911,205241
2530,204913,205239
2515,204841,205200
2466,204703,205124
2437,204517,205024
2293,204250,204905
2162,203935,204752
2224,203567,204585
2028,203200,204416
2064,202880,204282
2031,202652,204189
1971,202520,204142
1930,202480,204120
1971,202471,204136
1970,202491,204171
2005,202544,204188
1944,202599,204224
1986,202693,204254
1904,202791,204328
1882,202914,204361
1907,202983,204409
1903,203050,204437
1821,203118,204469
1885,203200,204510
1746,203296,204554
1825,203410,204587
1798,203503,204651
1762,203611,204686
1795,203677,204727
1802,203724,204730
1808,203757,204771
1808,203799,204778
1807,203832,204815
1826,203873,204830
1813,203867,204840
1903,203905,204842
1851,203911,204863
1803,203924,204863
1735,203952,204883
1681,203997,204897
1703,204066,204927
1654,204115,204959
1678,204161,204979
1728,204228,204998
1773,204287,205037
1877,204347,205062
2173,204431,205107
2957,204539,205150
2985,204658,205206
1937,204745,205261
1531,204841,205298
1531,204927,205328
1585,205020,205381
1627,205095,205412
1662,205181,205452
1670,205255,205488
1687,205340,205525
1713,205380,205537
1744,205380,205531
1822,205420,205545
1842,205482,205584
1860,205549,205613
1878,205629,205654
1954,205722,205696
1947,205793,205718
1922,205828,205734
1895,205815,205721
1823,205749,205685
1838,205558,205585
1826,205318,205476
1821,205032,205321
1531,204692,205163
1358,204325,204990
1339,203969,204832
1361,203658,204686
1432,203361,204571
1420,203167,204480
1504,203045,204435
1605,202945,204380
1691,202860,204367
1627,202824,204331
1685,202799,204325
1670,202790,204325
1729,202785,204330
1682,202823,204341
1735,202860,204356
1770,202875,204363
1805,202879,204359
1783,202902,204352
1801,202945,204382
1818,202999,204408
1769,203072,204424
1847,203133,204452
1818,203163,204458
1841,203135,204438
1840,203116,204422
1847,203098,204407
1863,203074,204402
1947,203068,204395
1995,203048,204377
1962,203058,204373
2105,203071,204388
2080,203106,204384
2074,203118,204409
1970,203152,204413
1941,203199,204432
1936,203233,204455
1875,203314,204488
1885,203424,204530
1911,203542,204575
1952,203640,204627
2019,203733,204669
2266,203823,204711
2927,203941,204756
3425,204051,204814
2340,204188,204869
1762,204314,204942
1680,204453,204987
1772,204546,205052
1835,204682,205088
1827,204788,205142
1861,204887,205183
1862,204961,205225
1918,205054,205259
1905,205142,205298
1984,205246,205347
1985,205319,205387
2013,205401,205417
2022,205460,205468
2059,205541,205497
2060,205596,205514
2128,205651,205531
2062,205680,205553
2083,205683,205540
2032,205591,205483
2045,205449,205413
2015,205238,205311
1983,204988,205189
1985,204693,205051
1909,204370,204900
1856,204068,204767
1894,203818,204656
1889,203609,204569
1932,203448,204504
1943,203352,204470
1963,203312,204448
1987,203333,204483
2039,203336,204472
1968,203341,204491
2032,203381,204487
2001,203433,204518
1999,203512,204557
2075,203579,204587
2025,203675,204637
1989,203770,204687
2053,203898,204738
2083,203982,204789
1975,204051,204823
2031,204144,204855
2093,204220,204892
2105,204308,204925
2081,204372,204974
2067,204436,204985
2177,204487,205013
2058,204541,205023
2185,204561,205054
2218,204627,205073
2189,204684,205121
2146,204792,205157
2073,204864,205209
1983,204954,205230
2023,205012,205267
2075,205080,205286
2059,205135,205330
2109,205204,205351
2112,205282,205394
2235,205378,205427
2608,205461,205477
3603,205571,205524
2884,205675,205580
2032,205776,205621
1735,205875,205666
1833,205944,205700
1851,205997,205724
1901,206064,205744
1868,206128,205772
1907,206212,205805
2006,206319,205861
2026,206419,205901
2014,206519,205959
2042,206594,205988
2078,206665,206010
2147,206715,206047
2117,206787,206068
2118,206851,206105
2137,206931,206129
2156,207011,206175
2177,207055,206191
2159,207021,206169
2025,206936,206109
2081,206775,206040
1936,206575,205927
1919,206319,205831
1898,206081,205703
1909,205843,205614
1865,205606,205496
1904,205386,205410
1829,205215,205331
1902,205079,205266
1960,204971,205229
1935,204920,205214
1959,204891,205204
1947,204891,205219
1943,204908,205233
1927,204915,205227
1955,204913,205231
1975,204921,205227
1939,204943,205240
1981,204988,205268
1961,205037,205303
1979,205115,205329
1979,205196,205381
1940,205294,205408
2002,205372,205454
1941,205446,205476
1964,205502,205510
2042,205530,205510
2086,205567,205529
2094,205590,205550
2062,205598,205548
1969,205611,205548
1879,205622,205556
1910,205652,205570
1886,205687,205580
1926,205726,205605
1878,205771,205633
1883,205861,205669
1900,205942,205713
2047,206017,205736
2253,206087,205777
2859,206176,205819
3558,206265,205862
2370,206360,205901
1765,206467,205939
1773,206555,205983
1781,206640,206027
1776,206723,206060
1825,206827,206100
1903,206907,206146
1875,207003,206173
1971,207073,206218
1993,207140,206240
2017,207213,206278
2039,207312,206317
2018,207421,206371
2096,207533,206414
2101,207621,206469
2115,207742,206524
2067,207824,206549
2143,207878,206573
2077,207892,206565
2097,207839,206533
2066,207726,206469
2095,207550,206383
2015,207312,206266
1904,207028,206134
1926,206708,205987
1966,206390,205847
1885,206091,205705
1921,205839,205610
1936,205632,205502
1991,205436,205436
1973,205288,205368
1994,205168,205325
1951,205091,205287
2009,205060,205277
2063,205055,205286
2054,205076,205307
2014,205092,205307
2021,205066,205302
2069,205034,205277
2037,205004,205271
2095,205009,205263
2085,205027,205276
2101,205049,205286
2064,205062,205286
2093,205074,205297
2143,205060,205273
2115,205020,205261
2227,204951,205222
2251,204859,205180
2159,204782,205127
2118,204703,205097
2066,204651,205058
2032,204591,205045
2141,204589,205031
2017,204585,205028
2067,204606,205030
1999,204609,205060
2129,204659,205062
2217,204702,205087
2759,204753,205101
3776,204787,205122
2883,204807,205130
1988,204833,205133
1747,204876,205152
1771,204954,205188
1840,205038,205227
1888,205099,205247
1890,205154,205270
1895,205199,205284
1975,205241,205293
1961,205298,205323
1994,205389,205369
1957,205472,205403
2031,205551,205438
2078,205609,205454
2041,205672,205487
2064,205742,205508
2102,205815,205558
2098,205901,205566
2114,205915,205589
2113,205885,205545
2086,205782,205494
2031,205630,205400
1990,205405,205308
1965,205144,205166
2007,204838,205031
1911,204547,204886
1877,204270,204762
1909,204005,204652
1899,203802,204564
1914,203678,204517
1958,203616,204476
1909,203558,204479
1920,203554,204473
1988,203548,204478
1886,203606,204496
1929,203656,204534
1985,203727,204555
1959,203799,204599
1938,203900,204630
1920,204011,204703
1990,204147,204757
1933,204276,204837
1987,204406,204885
2000,204518,204949
2012,204603,204966
2005,204657,205004
2000,204729,205031
2070,204741,205043
2005,204761,205039
1987,204773,205049
1904,204781,205047
1926,204788,205057
1857,204806,205064
1919,204834,205080
1918,204890,205106
1875,204943,205128
1923,204992,205158
2003,205060,205180
2320,205125,205231
3120,205242,205264
3278,205348,205339
2114,205484,205386
1648,205582,205450
1733,205686,205484
1776,205776,205526
1810,205864,205568
1862,205962,205617
1872,206040,205646
1891,206125,205697
1955,206202,205728
1979,206295,205772
1955,206381,205805
1949,206457,205834
2054,206517,205880
2009,206591,205889
2017,206623,205919
2045,206673,205919
2061,206707,205950
2085,206751,205955
2099,206744,205968
2029,206715,205920
2047,206597,205883
1998,206367,205763
1985,206061,205630
1931,205717,205458
1931,205340,205290
1898,204994,205124
1904,204681,205003
1872,204427,204878
1908,204217,204794
1913,204054,204725
1991,203901,204672
1981,203851,204639
1923,203835,204648
1952,203864,204673
1970,203929,204708
1981,204035,204757
1925,204122,204810
1951,204188,204839
1937,204270,204882
1987,204380,204927
1935,204511,204994
1921,204634,205042
2002,204765,205114
2113,204838,205134
2063,204898,205159
2043,204938,205187
2177,204938,205172
2103,204918,205186
2159,204926,205168
2080,204909,205175
2015,204925,205171
1998,204944,205198
2030,204986,205206
2013,205026,205235
2025,205066,205243
1983,205117,205269
2038,205166,205298
2338,205222,205330
2983,205287,205363
3474,205374,205408
2441,205475,205451
1822,205604,205512
1749,205695,205544
1795,205788,205595
1781,205868,205634
1875,205930,205661
1866,205983,205673
1851,206026,205692
1967,206060,205728
1957,206127,205736
2007,206184,205761
2019,206262,205797
2005,206314,205831
2074,206366,205847
2065,206397,205856
2064,206443,205861
2128,206476,205888
2117,206498,205881
2137,206454,205868
2117,206366,205804
2080,206185,205722
2031,205947,205597
2047,205594,205438
1983,205194,205253
2001,204807,205077
2000,204431,204903
1989,204078,204764
2078,203824,204643
2003,203637,204573
1943,203527,204535
2007,203516,204542
2013,203553,204557
1983,203615,204596
2039,203674,204622
2062,203729,204642
2059,203790,204686
2074,203875,204715
2009,203976,204763
2026,204104,204829
1968,204255,204898
2015,204413,204964
2023,204540,205042
2043,204678,205079
2006,204769,205145
2075,204856,205167
2097,204931,205212
2113,204991,205242
2144,205066,205264
2129,205093,205269
2145,205099,205265
2017,205083,205264
1997,205054,205262
1993,205044,205249
2031,205043,205268
2010,205075,205273
1973,205137,205309
1961,205236,205356
2023,205330,205403
2206,205444,205445
2701,205544,205503
3568,205656,205554
2622,205764,205604
1854,205858,205643
1725,205960,205690
1824,206054,205726
1825,206154,205766
1798,206221,205814
1854,206304,205835
1968,206360,205868
1838,206412,205876
1955,206439,205899
1923,206471,205910
2060,206494,205909
2002,206520,205899
1969,206529,205927
2034,206572,205931
2002,206611,205959
2033,206642,205975
2107,206655,205968
2128,206602,205940
2092,206472,205873
2095,206278,205769
2074,206001,205633
2035,205706,205492
1958,205386,205349
1951,205054,205204
1991,204675,205038
1963,204332,204876
1943,204026,204744
1911,203798,204648
1937,203648,204594
1950,203598,204569
1994,203618,204593
1982,203683,204623
2007,203766,204660
1986,203816,204692
2005,203865,204709
2029,203928,204741
2030,203992,204767
1971,204103,204826
2019,204223,204871
2064,204349,204929
2015,204505,205004
1974,204632,205067
2023,204738,205110
2018,204795,205138
2102,204812,205127
2095,204808,205140
2129,204833,205141
2098,204852,205163
2013,204891,205162
2027,204885,205176
1919,204877,205169
1947,204879,205170
1940,204888,205170
1913,204905,205188
1901,204955,205206
1917,205015,205229
1941,205092,205268
2141,205180,205318
2645,205279,205361
3536,205419,205421
2634,205543,205482
1819,205692,205554
1651,205812,205607
1718,205921,205655
1763,206009,205702
1808,206142,205749
1813,206249,205790
1796,206351,205825
1857,206440,205889
1909,206550,205926
1889,206644,205976
1923,206745,206016
2002,206858,206068
1962,206965,206116
1970,207074,206178
2021,207200,206222
2030,207297,206265
2021,207395,206319
1985,207442,206332
1989,207410,206310
1910,207290,206244
1891,207084,206137
1891,206773,206003
1840,206422,205834
1746,206024,205655
1822,205614,205464
1766,205256,205311
1722,204943,205193
1694,204725,205097
1758,204619,205063
1787,204611,205056
1719,204638,205093
1718,204737,205140
1808,204878,205219
1815,205020,205276
1842,205150,205342
1793,205266,205390
1827,205362,205438
1806,205484,205489
1841,205621,205556
1807,205766,205621
1847,205911,205705
1852,206044,205740
1807,206156,205808
1872,206248,205831
1808,206291,205858
1920,206286,205842
1936,206282,205856
1915,206284,205843
1954,206282,205842
1964,206265,205835
1939,206243,205839
1873,206221,205807
1872,206192,205807
1783,206196,205808
1889,206211,205816
1830,206253,205832
1863,206322,205869
1903,206390,205917
1918,206477,205952
2224,206533,205993
2741,206629,206012
3457,206681,206050
2465,206760,206053
1744,206842,206121
1744,206951,206149
1757,207057,206213
1808,207151,206249
1831,207223,206290
1915,207298,206303
1961,207327,206325
1942,207385,206324
2002,207422,206365
1989,207511,206402
2000,207589,206436
2032,207674,206460
2019,207729,206491
2066,207792,206515
2116,207848,206534
2077,207912,206566
2023,207962,206590
2039,207945,206567
2085,207841,206501
2011,207616,206403
1970,207330,206265
2027,206971,206100
1903,206582,205919
1895,206183,205743
1866,205807,205569
1899,205442,205423
1895,205166,205307
2005,204944,205214
1930,204830,205158
1919,204774,205160
1924,204808,205165
1904,204886,205211
1951,204964,205253
1966,205040,205289
2032,205088,205305
1957,205136,205337
1992,205164,205343
1937,205252,205380
1985,205337,205419
1991,205457,205474
2000,205548,205525
2000,205652,205577
1990,205755,205615
1986,205839,205642
2023,205882,205690
2015,205919,205676
2065,205896,205682
2170,205892,205664
2085,205869,205667
2057,205858,205649
2023,205819,205647
1986,205835,205645
1918,205835,205654
1968,205874,205673
1853,205906,205686
1920,205953,205708
1927,205992,205746
2021,206066,205759
2319,206144,205800
3024,206246,205836
3288,206339,205881
2205,206426,205912
1706,206504,205964
1653,206601,205998
1713,206694,206036
1775,206805,206068
1855,206886,206124
1840,206993,206163
1846,207075,206201
1949,207150,206240
1943,207227,206268
1965,207321,206308
1878,207405,206336
1995,207479,206376
1985,207537,206392
1971,207580,206430
2061,207622,206427
1949,207636,206441
2111,207625,206428
1979,207558,206394
1975,207430,206325
2000,207195,206197
1962,206865,206045
1921,206464,205867
1909,206002,205656
1862,205527,205442
1831,205084,205245
1917,204706,205080
1893,204423,204950
1919,204197,204869
1941,204081,204814
1915,204025,204798
1881,204033,204814
1938,204077,204829
1959,204155,204859
1899,204248,204907
1926,204332,204946
1959,204411,204980
1926,204456,205016
1999,204531,205029
2018,204586,205069
1986,204673,205098
2046,204757,205142
2019,204871,205189
2091,204960,205234
2030,205030,205257
2087,205056,205274
2121,205089,205278
2178,205108,205301
2087,205149,205314
2059,205149,205317
2018,205146,205308
2047,205143,205301
2033,205119,205295
2000,205109,205284
2002,205105,205282
2070,205139,205304
1999,205186,205333
2231,205252,205351
2640,205315,205401
3678,205373,205403
2751,205411,205440
1911,205498,205467
1745,205592,205519
1776,205694,205553
1867,205794,205606
1858,205879,205631
1946,205968,205672
1862,206014,205681
1915,206054,205710
1934,206082,205725
2018,206116,205732
1996,206146,205747
2058,206189,205756
2091,206214,205774
2054,206255,205793
2067,206286,205805
2045,206332,205812
2123,206362,205839
2132,206371,205832
2090,206308,205800
2098,206174,205723
2028,205950,205618
2005,205655,205466
2000,205277,205305
1922,204884,205113
1918,204459,204924
1970,204059,204742
1894,203703,204597
1949,203414,204462
1949,203222,204378
2018,203103,204326
1966,203037,204310
1984,203023,204301
1980,203034,204302
1982,203088,204328
1987,203137,204349
1914,203205,204381
1973,203295,204410
1904,203389,204464
1971,203498,204486
1889,203566,204542
1914,203619,204547
1915,203667,204570
1918,203745,204591
1923,203799,204624
2027,203866,204640
1921,203870,204654
2031,203842,204634
2058,203824,204624
2023,203803,204602
1919,203774,204602
1955,203763,204596
1899,203795,204608
1909,203821,204619
1904,203855,204637
1843,203895,204646
1915,203950,204674
1902,203961,204687
2041,203967,204682
2414,203978,204692
3387,204010,204690
3046,204066,204725
2007,204178,204771
1664,204285,204820
1687,204400,204864
1728,204484,204899
1765,204561,204924
1782,204609,204954
1807,204695,204985
1857,204806,205031
1850,204934,205079
1873,205061,205144
1882,205201,205201
1884,205319,205249
1878,205439,205302
1949,205560,205342
1987,205646,205386
1973,205717,205419
2057,205802,205450
2066,205859,205474
2016,205851,205470
2011,205785,205417
1969,205613,205342
1966,205340,205206
1971,204961,205035
1920,204550,204824
1947,204148,204664
1845,203825,204493
1911,203552,204400
1856,203386,204324
1907,203285,204280
1899,203248,204276
1893,203246,204284
1953,203281,204298
1991,203321,204313
1942,203357,204320
1954,203395,204347
2031,203448,204376
1987,203538,204405
2021,203613,204450
1969,203712,204483
2038,203801,204538
2018,203895,204554
2041,203957,204611
1991,204051,204622
2055,204128,204688
1984,204235,204722
2026,204308,204777
2033,204372,204778
2066,204381,204799
2099,204385,204782
2035,204372,204784
2013,204377,204777
1966,204364,204786
1914,204402,204792
1937,204438,204816
1951,204508,204840
1918,204573,204865
1952,204644,204913
1890,204755,204959
2045,204842,205006
2365,204923,205043
3216,204988,205067
3216,205054,205100
2096,205142,205137
1734,205252,205182
1719,205364,205225
1773,205468,205267
1776,205580,205326
1885,205693,205371
1904,205800,205428
1835,205890,205458
1924,205961,205505
1936,206031,205528
1934,206121,205581
1974,206212,205588
1987,206276,205649
2027,206358,205669
2061,206397,205698
2087,206449,205708
2093,206491,205741
2018,206491,205727
2126,206406,205690
1983,206219,205586
2064,205874,205429
1938,205465,205211
1936,204975,204991
1947,204473,204749
1959,203942,204534
2028,203465,204311
2013,203048,204102
2063,202689,203970
2064,202457,203862
1998,202315,203808
2065,202268,203795
2081,202279,203799
2063,202331,203818
2058,202432,203873
2133,202530,203910
2096,202596,203941
2065,202658,203957
2047,202717,203992
2063,202770,204027
2045,202864,204067
2064,202993,204131
2081,203124,204194
2032,203246,204240
2064,203359,204290
2046,203463,204339
2079,203582,204388
2096,203699,204435
2143,203847,204498
2112,203994,204570
2160,204087,204612
2183,204150,204641
2064,204178,204665
2036,204181,204656
2067,204165,204656
1973,204175,204651
1981,204195,204676
1926,204233,204681
1937,204261,204709
2018,204334,204720
1978,204408,204763
2207,204483,204797
2559,204551,204832
3699,204593,204843
2730,204650,204870
1919,204688,204880
1718,204726,204890
1808,204753,204913
1851,204781,204926
1895,204817,204929
1793,204874,204955
1891,204923,204971
1901,204947,204976
1913,204986,205004
2015,205060,205029
1975,205160,205082
1984,205290,205123
1946,205373,205187
2025,205449,205198
2007,205478,205216
2070,205483,205215
2058,205448,205201
2115,205372,205156
2013,205266,205093
2000,205049,204981
1923,204745,204856
1965,204381,204656
1937,203925,204442
1915,203434,204213
1772,202995,204017
1888,202642,203853
1798,202389,203727
1822,202235,203680
1834,202180,203656
1814,202189,203666
1835,202209,203682
1936,202255,203709
1904,202337,203732
1929,202441,203784
1979,202528,203830
1856,202615,203871
1963,202723,203918
1962,202878,203989
1953,203033,204053
1951,203201,204141
1940,203360,204201
1968,203511,204280
1899,203650,204332
1941,203754,204382
1985,203872,204438
2001,203977,204481
2077,204066,204532
2030,204162,204553
1973,204228,204596
1886,204290,204612
1887,204311,204631
1906,204334,204627
1830,204354,204645
1907,204399,204648
1861,204454,204701
1845,204549,204736
1984,204659,204777
2173,204774,204841
2747,204886,204882
3492,204973,204923
2418,205045,204965
1725,205116,204990
1603,205211,205006
1712,205263,205060
1833,205360,205094
1776,205455,205155
1831,205584,205187
1827,205672,205234
1840,205745,205263
1982,205807,205299
1972,205900,205330
1995,205961,205364
1994,206050,205396
1979,206140,205450
2023,206234,205484
2009,206308,205524
2062,206384,205555
2106,206411,205566
2119,206420,205566
2001,206335,205517
2069,206176,205432
2064,205916,205299
1955,205570,205125
1904,205192,204952
1890,204767,204756
1923,204348,204565
1932,203969,204409
1911,203656,204261
1894,203407,204162
1949,203259,204080
1925,203178,204062
1921,203166,204060
1993,203173,204077
2007,203230,204092
1933,203303,204135
2000,203404,204177
1925,203495,204230
1969,203589,204260
1955,203679,204311
1974,203761,204334
1906,203837,204392
1937,203923,204425
1934,204017,204465
1968,204083,204487
1973,204134,204515
2000,204167,204536
2023,204197,204542
2066,204213,204540
2093,204210,204527
2083,204196,204530
2019,204171,204519
1897,204138,204507
1907,204127,204495
1919,204097,204487
1823,204130,204493
1869,204166,204516
1957,204254,204548
1949,204332,204598
1943,204445,204636
2213,204529,204675
2758,204598,204701
3492,204677,204739
2544,204776,204778
1787,204868,204822
1607,204962,204867
1808,205064,204910
1745,205177,204962
1730,205310,205013
1744,205412,205062
1795,205491,205094
1839,205536,205119
1874,205603,205145
1840,205662,205178
1886,205759,205208
1904,205823,205254
1990,205914,205273
1979,205965,205297
1955,206010,205305
2031,206046,205337
2075,206076,205338
2032,206044,205323
1993,205943,205260
1989,205740,205155
1965,205428,204994
1854,205046,204812
1860,204573,204582
1853,204115,204381
1837,203688,204186
1779,203328,204024
1834,203042,203890
1839,202839,203795
1838,202717,203760
1895,202675,203739
1871,202687,203736
1953,202729,203759
1904,202788,203788
1947,202847,203806
1904,202850,203820
1983,202881,203833
1962,202872,203841
2058,202921,203851
1978,202978,203881
1929,203071,203913
1950,203144,203962
1993,203234,203984
1931,203301,204019
1963,203360,204041
1994,203372,204058
1927,203349,204029
2046,203316,204010
2064,203291,203988
1965,203260,203966
2021,203229,203956
1976,203212,203950
1904,203198,203950
1915,203230,203942
1936,203271,203970
1907,203363,204007
1917,203476,204065
1922,203592,204116
1947,203691,204165
2155,203803,204217
2593,203918,204268
3568,204040,204319
2694,204160,204374
1857,204297,204425
1617,204408,204481
1695,204492,204519
1766,204558,204553
1806,204620,204563
1799,204676,204601
1771,204751,204631
1830,204809,204645
1893,204850,204670
1911,204896,204678
1885,204941,204707
2032,205002,204720
2019,205039,204757
1979,205070,204762
1995,205096,204779
2067,205106,204770
2029,205091,204771
2019,205043,204727
2023,204911,204661
1991,204694,204546
2071,204375,204395
2005,203978,204202
1959,203543,203982
1945,203083,203759
1994,202627,203557
1965,202226,203371
1943,201879,203209
1906,201625,203097
1889,201486,203027
1968,201441,203019
1983,201482,203026
1955,201548,203063
2031,201652,203106
1936,201729,203152
1948,201800,203172
1959,201862,203206
1968,201937,203237
2000,202010,203270
2001,202118,203320
1968,202221,203373
1936,202352,203431
1968,202459,203488
1904,202544,203520
1994,202632,203556
2019,202696,203589
2017,202732,203601
2000,202742,203598
2057,202755,203600
2064,202773,203609
1969,202778,203587
1984,202755,203605
1904,202754,203570
1854,202734,203571
1906,202726,203570
1879,202746,203584
1916,202785,203590
1843,202872,203639
1973,202974,203687
2218,203040,203715
2555,203094,203733
3433,203157,203774
2602,203230,203793
1792,203265,203809
1567,203302,203812
1693,203332,203824
1812,203373,203842
1843,203419,203861
1818,203480,203888
1856,203583,203937
1943,203661,203975
1872,203728,204004
1970,203767,204027
2019,203824,204041
2047,203863,204063
1999,203900,204064
2014,203928,204085
2042,203985,204114
2006,204033,204127
2116,204058,204138
2141,204049,204128
2032,203980,204086
2043,203839,204002
1966,203621,203894
2009,203351,203754
1905,202994,203583
1851,202639,203405
1891,202277,203240
1929,201966,203080
1822,201715,202984
1909,201555,202902
1862,201440,202854
1915,201390,202823
1879,201363,202830
1951,201399,202834
1919,201437,202857
1963,201464,202868
1975,201471,202880
1963,201487,202880
1986,201520,202885
2017,201555,202910
1984,201637,202940
1914,201726,202991
1971,201830,203028
1984,201904,203074
1930,201963,203084
2042,202009,203111
2016,202020,203083
2096,201987,203101
2128,201955,203062
2075,201915,203057
2009,201899,203033
1959,201878,203029
1904,201843,203003
1908,201831,203006
1904,201839,202994
1907,201892,203024
1919,201954,203058
1937,202027,203088
2000,202105,203121
2192,202202,203170
2766,202289,203216
3533,202409,203259
2480,202498,203315
1839,202615,203344
1616,202679,203391
1744,202753,203397
1783,202808,203442
1818,202896,203469
1819,202980,203525
1890,203080,203553
1879,203197,203614
1901,203338,203673
1920,203479,203736
1860,203599,203800
1936,203721,203853
1985,203820,203906
2031,203928,203945
1971,204020,203986
2055,204120,204034
2064,204205,204081
2037,204258,204076
2032,204219,204063
1945,204093,203972
1898,203851,203857
1920,203532,203692
1927,203148,203507
1794,202762,203319
1877,202416,203166
1901,202120,203023
1862,201885,202909
1886,201730,202848
1823,201688,202830
1867,201691,202837
1821,201740,202864
1890,201809,202896
1891,201889,202946
1866,201987,202993
1889,202078,203022
1868,202183,203075
1934,202265,203116
1881,202349,203162
1899,202472,203205
1954,202586,203266
1920,202711,203322
1974,202845,203402
1999,202980,203439
2078,203066,203487
2041,203151,203511
2112,203178,203533
2064,203180,203540
1984,203196,203534
2015,203214,203535
1949,203229,203538
1926,203234,203546
1902,203267,203571
1943,203291,203572
1856,203296,203586
1893,203326,203587
2002,203372,203594
2320,203423,203632
3086,203506,203663
3406,203591,203711
2229,203687,203741
1666,203775,203796
1589,203854,203826
1723,203913,203862
1773,203974,203886
1739,204048,203916
1801,204145,203956
1903,204243,204009
1797,204352,204052
1783,204434,204096
1891,204500,204110
1910,204535,204146
1946,204564,204148
1903,204596,204172
2023,204613,204165
2023,204625,204184
2042,204634,204189
2071,204631,204183
2032,204551,204132
2031,204391,204045
2037,204132,203917
1968,203802,203736
1905,203401,203545
1926,202986,203333
1866,202556,203150
1890,202190,202958
1893,201856,202812
1851,201627,202699
1904,201458,202637
1925,201370,202578
1936,201285,202558
1875,201268,202551
1936,201265,202548
1973,201289,202553
1870,201346,202576
1933,201375,202601
1957,201415,202615
1982,201477,202651
1986,201555,202681
2027,201666,202737
1998,201764,202775
1993,201844,202826
1963,201956,202870
2085,202035,202917
2083,202117,202935
2128,202148,202956
2121,202166,202965
2064,202153,202957
2007,202153,202937
1952,202111,202911
1904,202091,202895
1919,202073,202888
1919,202086,202887
1936,202111,202909
1958,202158,202928
1839,202219,202952
1971,202276,202989
2323,202351,203005
3029,202424,203045
3373,202515,203085
2181,202602,203133
1648,202713,203175
1697,202807,203229
1725,202889,203254
1742,202939,203287
1842,202984,203290
1884,203002,203315
1883,203040,203316
1879,203060,203322
1921,203100,203339
1934,203141,203357
1933,203188,203377
1943,203238,203403
2001,203269,203413
2015,203300,203424
2065,203331,203431
2096,203345,203450
2055,203342,203447
2121,203282,203391
2032,203112,203316
2007,202852,203157
1927,202494,202979
1930,202100,202770
1889,201665,202569
1858,201287,202373
1850,200915,202213
1907,200626,202064
1856,200381,201957
1830,200223,201879
1899,200128,201835
1932,200080,201810
1884,200095,201832
1936,200145,201852
1904,200227,201882
1881,200292,201922
1902,200369,201947
1967,200433,201980
1953,200501,202009
1943,200572,202056
1953,200685,202091
1954,200773,202147
1917,200880,202182
1957,200938,202230
1889,201006,202246
1927,201048,202267
1915,201102,202280
1971,201129,202300
2000,201163,202294
2096,201197,202310
2063,201243,202320
1968,201280,202341
1965,201364,202372
1910,201415,202409
1895,201509,202444
1932,201588,202486
1930,201700,202531
1926,201815,202598
1968,201956,202643
2058,202083,202714
2383,202190,202756
3069,202289,202810
3351,202401,202851
2192,202491,202896
1626,202582,202939
1712,202661,202973
1744,202749,203012
1791,202832,203046
1853,202874,203066
1891,202915,203085
1920,202973,203106
1885,203030,203138
1889,203115,203177
1959,203179,203200
1942,203228,203229
1911,203264,203238
2033,203291,203264
2054,203360,203277
2076,203412,203321
2107,203495,203346
2071,203512,203366
2089,203468,203322
2086,203330,203241
2057,203095,203111
1970,202760,202949
1997,202348,202736
1914,201873,202512
1887,201441,202295
1914,201042,202097
1859,200711,201952
1886,200479,201843
1939,200326,201778
1915,200238,201733
1863,200205,201731
1883,200205,201713
1903,200246,201738
1905,200295,201770
1923,200345,201804
1969,200422,201826
1967,200471,201863
1957,200539,201889
1939,200620,201931
2002,200716,201979
1965,200815,202032
1902,200921,202074
1953,201003,202125
1945,201095,202160
1987,201157,202184
1994,201214,202211
2038,201243,202212
2115,201250,202219
2058,201271,202218
2025,201267,202223
1920,201257,202204
1920,201257,202221
1887,201271,202206
1904,201271,202228
1931,201312,202233
1974,201334,202247
1901,201365,202258
2061,201393,202268
2317,201426,202274
3106,201483,202309
3184,201503,202307
2097,201521,202318
1723,201567,202318
1617,201585,202332
1783,201623,202345
1762,201649,202349
1826,201678,202366
1809,201673,202358
1775,201639,202333
1835,201611,202313
1879,201583,202305
1973,201564,202281
1904,201529,202285
1967,201535,202262
1981,201517,202253
1998,201477,202224
2003,201423,202200
2053,201413,202186
2019,201376,202176
2003,201335,202133
2061,201203,202055
1920,200958,201926
1950,200624,201751
1884,200210,201536
1877,199743,201308
1843,199280,201058
1858,198871,200866
1924,198548,200707
1894,198310,200584
1887,198115,200501
1906,197985,200430
1893,197901,200406
1888,197864,200373
1899,197816,200346
2017,197799,200324
1991,197783,200325
1951,197773,200300
1982,197742,200298
1936,197755,200286
1957,197767,200295
1910,197835,200328
1991,197940,200379
1981,198077,200446
2054,198215,200498
2032,198295,200533
2029,198340,200532
2114,198325,200532
2086,198292,200494
2032,198269,200491
2031,198278,200482
1961,198263,200479
1918,198254,200444
1963,198218,200436
1933,198228,200435
1877,198235,200450
1947,198285,200455
2022,198302,200468
2352,198373,200490
3085,198449,200531
3421,198539,200564
2239,198623,200622
1677,198704,200651
1705,198759,200678
1693,198800,200691
1821,198826,200695
1808,198876,200722
1835,198923,200745
1914,198977,200756
1841,199059,200793
1894,199151,200851
1968,199245,200880
1937,199316,200911
1981,199374,200938
2069,199430,200989
2013,199505,200997
2033,199552,201042
2045,199622,201049
2023,199682,201083
2075,199695,201072
2019,199637,201042
1990,199478,200941
2001,199250,200822
1897,198918,200640
1858,198513,200437
1852,198097,200215
1821,197727,200037
1856,197427,199873
1843,197178,199766
1923,196993,199670
1910,196872,199609
1802,196805,199583
1872,196810,199571
1907,196820,199591
1899,196842,199591
1887,196827,199585
1882,196820,199575
1913,196820,199570
1929,196868,199575
1949,196921,199609
1910,197011,199642
1979,197114,199689
1965,197237,199749
1995,197343,199811
2057,197443,199843
1996,197533,199887
1952,197593,199903
1915,197605,199912
1914,197597,199913
1875,197587,199897
1886,197620,199913
1881,197661,199931
1907,197701,199961
1861,197779,199984
1926,197843,200032
2233,197931,200066
2707,198012,200123
3643,198142,200177
2537,198274,200252
1730,198403,200309
1635,198512,200374
1692,198617,200400
1731,198681,200444
1798,198756,200488
1827,198830,200532
1766,198889,200535
1883,198947,200569
1886,199039,200622
1935,199128,200666
1923,199214,200703
1975,199304,200747
1982,199370,200774
2015,199439,200818
1968,199533,200858
2066,199643,200898
2046,199721,200936
2101,199721,200928
2037,199657,200898
2075,199516,200808
1977,199298,200692
1958,199001,200535
1904,198636,200340
1872,198286,200151
1845,197948,199999
1836,197669,199866
1909,197434,199770
1907,197317,199699
1849,197263,199684
1926,197265,199676
1888,197323,199713
1877,197396,199756
1855,197478,199790
1895,197506,199801
1854,197521,199824
1863,197540,199826
1886,197580,199842
1838,197655,199879
1856,197772,199938
1873,197881,200001
1838,198000,200059
1878,198091,200098
1917,198168,200143
1899,198233,200175
1952,198269,200187
1855,198290,200189
1789,198278,200194
1712,198267,200176
1792,198250,200153
1735,198235,200154
1781,198274,200167
1728,198301,200200
1779,198358,200214
1783,198400,200243
2036,198449,200256
2645,198479,200285
3286,198542,200305
2366,198601,200347
1607,198667,200371
1425,198759,200422
1562,198863,200462
1511,198933,200515
1601,199069,200576
1648,199158,200636
1707,199253,200661
1638,199321,200701
1747,199397,200739
1774,199450,200750
1800,199482,200774
1797,199549,200802
1793,199625,200838
1822,199704,200880
1894,199801,200924
1866,199878,200964
1891,199923,200985
1925,199940,200977
1835,199855,200941
1929,199702,200841
1841,199455,200725
1770,199169,200549
1762,198840,200389
1735,198546,200236
1634,198261,200102
1711,198032,199986
1703,197893,199930
1699,197812,199898
1685,197796,199893
1694,197803,199897
1705,197819,199916
1693,197864,199926
1735,197914,199955
1741,197970,199992
1703,198056,200030
1669,198159,200085
1744,198262,200133
1664,198377,200195
1707,198492,200253
1664,198584,200315
1725,198681,200351
1742,198722,200384
1744,198797,200410
1793,198873,200461
1776,198941,200484
1808,198991,200510
1856,199006,200506
1779,198989,200507
1693,198986,200502
1622,198976,200500
1643,198975,200486
1579,198996,200499
1648,199034,200516
1659,199103,200542
1695,199142,200576
1670,199203,200591
1953,199267,200631
2395,199349,200661
3088,199416,200705
2301,199497,200730
1527,199571,200787
1315,199674,200824
1473,199791,200885
1456,199916,200953
1533,200040,201009
1605,200153,201059
1559,200258,201121
1640,200350,201155
1673,200455,201206
1665,200560,201262
1659,200647,201303
1725,200736,201348
1770,200827,201379
1766,200918,201442
1733,201018,201478
1808,201099,201541
1774,201171,201547
1854,201158,201551
1830,201079,201470
1845,200905,201384
1777,200664,201247
1716,200354,201093
1730,200008,200904
1681,199627,200727
1680,199286,200547
1681,198996,200408
1712,198788,200301
1747,198650,200249
1653,198564,200205
1724,198535,200199
1792,198508,200185
1754,198507,200192
1808,198480,200184
1813,198448,200156
1857,198420,200154
1791,198340,200096
1867,198250,200059
1899,198168,200003
1918,198082,199974
1851,198051,199931
1904,198048,199959
1895,198073,199946
1999,198079,199956
1930,198126,199967
2023,198132,199974
2022,198095,199948
2054,198034,199926
1970,198031,199912
1955,198028,199914
1876,198065,199934
1936,198126,199970
1998,198223,200007
1894,198284,200038
1990,198368,200088
1978,198477,200139
2231,198576,200195
2537,198696,200243
3702,198822,200322
3830,198959,200382
2480,199092,200450
2159,199211,200492
2140,199283,200527
2242,199312,200536
2246,199291,200531
2195,199217,200485
2227,199153,200446
2233,199128,200414
2160,199089,200404
2159,199041,200373
2164,198987,200336
2199,198964,200324
2202,198980,200326
2189,198999,200334
2186,199035,200338
2160,199050,200351
2141,199054,200334
2115,199015,200312
2079,198937,200258
2093,198755,200164
2003,198572,200030
1957,198304,199894
2064,198054,199745
1936,197763,199601
1895,197516,199465
1881,197325,199382
1862,197195,199311
1923,197098,199268
1861,197036,199257
1947,197028,199243
1822,197056,199260
1842,197101,199285
1853,197200,199332
1917,197285,199370
1858,197367,199415
1808,197480,199473
1876,197545,199511
1869,197628,199534
1845,197707,199579
1907,197818,199625
1935,197925,199702
1963,198039,199745
1933,198168,199816
1927,198310,199875
2022,198414,199936
2019,198488,199953
1901,198489,199971
1923,198503,199981
1814,198548,199995
1793,198601,200018
1870,198689,200068
1857,198765,200108
1904,198823,200134
1904,198883,200169
1948,198965,200197
2125,199028,200251
2739,199108,200278
3482,199157,200311
2543,199209,200327
1815,199234,200365
1615,199313,200381
1754,199390,200435
1775,199502,200482
1810,199618,200553
1753,199755,200620
1809,199830,200669
1939,199907,200691
1913,199984,200751
1910,200111,200798
1947,200224,200875
1985,200329,200926
1933,200434,200977
2021,200540,201017
2031,200639,201078
2009,200737,201110
2000,200811,201161
2029,200856,201170
2064,200806,201143
1965,200714,201090
1938,200523,200975
1935,200276,200853
1875,200051,200707
1776,199806,200604
1813,199589,200486
1775,199414,200407
1819,199295,200341
1819,199208,200307
1829,199199,200306
1867,199201,200320
1873,199258,200340
1851,199316,200366
1872,199379,200401
1902,199437,200441
1969,199484,200473
1936,199548,200507
1889,199619,200545
1933,199699,200587
1907,199777,200633
1922,199845,200654
2005,199904,200697
2006,199985,200718
1984,200035,200762
1955,200110,200784
2009,200148,200814
2027,200191,200826
1985,200224,200844
1970,200247,200844
1899,200266,200861
1840,200275,200872
1818,200300,200878
1891,200334,200894
1889,200364,200909
1813,200408,200927
1888,200496,200981
1815,200594,201028
2226,200699,201082
2928,200782,201133
3280,200850,201156
2353,200912,201194
1657,201011,201229
1570,201070,201284
1791,201166,201306
1783,201221,201362
1840,201307,201380
1808,201380,201433
1887,201455,201459
1901,201514,201506
1906,201566,201516
1899,201615,201548
1911,201682,201582
2000,201743,201618
1967,201816,201654
1991,201890,201683
2055,201947,201718
2095,202025,201748
2017,202064,201760
2096,202040,201747
2089,201950,201690
2032,201807,201599
2000,201608,201496
1908,201401,201379
1908,201149,201264
1863,200899,201126
1881,200629,200994
1850,200404,200862
1874,200233,200800
1856,200135,200739
1930,200069,200727
1905,200073,200730
1932,200107,200752
1878,200114,200752
1968,200105,200760
1965,200096,200733
1946,200085,200732
2010,200089,200740
1959,200128,200753
1995,200172,200781
2013,200247,200825
1919,200337,200868
1979,200417,200911
2005,200489,200958
1993,200598,201003
1969,200655,201029
2026,200699,201051
2043,200724,201070
2075,200749,201069
2031,200746,201078
1983,200757,201068
1904,200743,201068
1946,200758,201064
1876,200741,201061
1899,200750,201052
1879,200753,201065
1936,200774,201081
2038,200802,201090
2323,200852,201113
3094,200914,201149
3362,200967,201169
2255,201014,201196
1715,201046,201218
1685,201106,201231
1732,201158,201263
1808,201235,201293
1815,201292,201338
1829,201388,201372
1886,201441,201412
1872,201518,201434
1938,201584,201484
1949,201673,201522
1993,201751,201567
1999,201849,201601
1968,201916,201643
1991,201974,201660
2007,202005,201705
2000,202050,201708
2075,202080,201714
2091,202075,201697
2117,202010,201663
1970,201902,201606
2000,201723,201500
1933,201488,201363
1931,201217,201218
1927,200948,201079
1895,200679,200948
1934,200454,200834
1904,200296,200745
1938,200196,200709
1872,200182,200708
1859,200195,200717
1908,200226,200734
1954,200246,200754
1923,200266,200757
1997,200262,200765
1981,200292,200762
1968,200321,200789
1968,200403,200827
2000,200499,200892
1995,200646,200956
2023,200743,201027
2090,200863,201074
2062,200912,201103
2064,200942,201105
2191,200919,201093
2146,200913,201088
2018,200901,201073
2030,200882,201077
1973,200880,201059
1958,200816,201031
1937,200782,200989
1938,200721,200976
1947,200707,200966
1968,200688,200959
2128,200711,200960
2279,200741,200980
2976,200770,200989
3696,200806,201013
2544,200848,201029
1879,200881,201053
1687,200948,201076
1804,200989,201112
1853,201032,201125
1909,201062,201131
1885,201075,201142
1936,201089,201147
1930,201124,201161
1941,201171,201185
2074,201249,201219
2033,201314,201256
1973,201427,201312
2065,201526,201360
2082,201621,201420
2044,201716,201465
2129,201779,201509
2110,201870,201530
2119,201883,201544
2032,201833,201507
2017,201699,201441
1973,201551,201336
1994,201371,201242
1929,201135,201112
1906,200917,201005
1865,200726,200906
1933,200588,200829
1984,200469,200770
1919,200407,200759
1962,200404,200765
1947,200457,200790
1903,200511,200827
1966,200580,200870
1933,200634,200907
1978,200705,200936
1989,200778,200994
1966,200867,201025
2013,200935,201078
1978,201032,201115
1983,201142,201187
1913,201245,201221
1984,201313,201275
2044,201414,201315
2042,201483,201345
2082,201558,201380
2074,201602,201405
1969,201660,201429
1962,201682,201449
1969,201688,201442
1901,201680,201440
1917,201675,201436
1904,201696,201444
1851,201754,201476
1971,201791,201502
2013,201851,201532
2295,201921,201575
3031,201984,201603
3477,202046,201632
2323,202090,201677
1690,202153,201698
1701,202234,201749
1803,202338,201797
1845,202437,201858
1847,202553,201908
1947,202674,201978
1963,202799,202033
1995,202925,202113
1991,203018,202157
2067,203114,202217
2013,203189,202239
1984,203238,202280
2025,203306,202295
2006,203336,202305
2032,203369,202331
2097,203415,202358
2046,203446,202364
2035,203426,202344
1997,203331,202287
2005,203159,202179
1899,202922,202059
1873,202678,201913
1837,202367,201756
1872,202073,201591
1776,201762,201452
1805,201544,201327
1809,201331,201235
1883,201167,201141
1879,201056,201101
1858,200984,201071
1930,200958,201063
1897,200924,201051
1933,200888,201038
1872,200887,201032
1849,200878,201027
2000,200869,201021
1893,200877,201028
1945,200876,201026
1968,200896,201028
1892,200918,201045
1905,200929,201046
1914,200911,201042
1987,200864,201002
1968,200743,200947
2036,200596,200850
2013,200395,200748
1840,200161,200603
1902,199818,200429
1861,199350,200160
1982,198641,199771
1815,197720,199227
1857,196736,198660
1817,195752,198096
1907,194661,197466
2000,193545,196788
2386,192463,196153
3294,191513,195590
3067,190731,195153
2135,189969,194701
1501,189142,194231
1648,187398,192246
1681,168298,175887
1774,190243,214317
1746,187436,214621
1840,169609,194831
1875,145463,168460
1888,124998,146420
1871,112794,133119
1817,101871,120326
1946,89655,106287
1981,79691,94825
1968,70283,83485
2110,60193,70908
2112,49441,57967
2106,40019,46704
2144,31624,36585
2125,24103,27638
2027,17689,20088
2109,12629,14223
1984,8999,10071
1895,6570,7314
1895,5026,5563
1823,4015,4428
1982,3334,3652
1936,2860,3109
1904,2508,2710
1920,2255,2416
1878,2055,2207
1920,1930,2037
1901,1814,1936
1967,1746,1834
1943,1674,1775
1955,1642,1708
1949,1604,1683
2000,1579,1656
1984,1562,1636
1919,1550,1622
1926,1540,1607
2016,1530,1606
2035,1531,1601
2009,1523,1597
2023,1529,1588
2054,1515,1594
2146,1525,1580
2067,1517,1591
1974,1516,1592
1921,1513,1583
1875,1515,1577
1872,1513,1585
1905,1511,1576
1883,1519,1579
1874,1510,1577
1887,1507,1583
2010,1515,1574
2368,1508,1580
3345,1508,1573
3007,1503,1577
1934,1508,1571
1591,1506,1565
1693,1502,1578
1734,1505,1570
1712,1501,1578
1776,1507,1565
1805,1496,1566
1847,1504,1559
1861,1499,1574
1941,1503,1566
1843,1499,1569
1874,1505,1561
1945,1490,1573
1883,1502,1559
1937,1499,1557
2110,1497,1566
2047,1504,1555
2042,1496,1559
2096,1500,1555
2007,1500,1565
1970,1500,1563
2016,1500,1570
1997,1494,1557
1968,1484,1564
1935,1500,1558
1980,1487,1569
1919,1504,1556
1904,1500,1568
2009,1505,1558
1935,1498,1570
1955,1498,1557
1967,1498,1560
1989,1497,1556
1958,1495,1564
1905,1501,1563
1936,1497,1562
1979,1506,1560
1887,1493,1558
1853,1500,1559
1810,1500,1565
1866,1504,1561
1905,1501,1558
1904,1497,1566
2047,1506,1560
2010,1498,1572
1895,1505,1567
1835,1495,1570
1840,1505,1560
1822,1503,1565
1792,1507,1565
1839,1495,1563
1841,1499,1566
1863,1505,1563
1891,1500,1562
2098,1506,1565
2647,1507,1564
3493,1504,1563
2485,1504,1561
1737,1511,1559
1535,1501,1562
1627,1496,1566
1635,1496,1563
1699,1501,1560
1696,1503,1565
1730,1507,1553
1774,1504,1572
1765,1503,1563
1793,1499,1569
1819,1509,1558
1846,1495,1566
1876,1506,1561
1931,1497,1577
1879,1501,1568
1881,1506,1562
1946,1510,1566
1936,1509,1558
1942,1505,1569
1888,1502,1553
1906,1501,1565
1856,1505,1566
1846,1497,1568
1846,1505,1560
1856,1510,1564
1874,1509,1557
1831,1489,1565
1874,1496,1566
1868,1502,1558
1904,1505,1566
1957,1508,1563
1968,1501,1564
1935,1505,1564
1936,1503,1563
1953,1500,1566
1984,1504,1561
2001,1502,1563
2019,1492,1560
2029,1501,1565
2000,1498,1561
2107,1498,1561
2081,1501,1556
2100,1494,1561
2003,1503,1554
1954,1501,1562
1950,1499,1560
1862,1498,1557
1897,1496,1560
1952,1508,1553
1950,1498,1564
1933,1501,1554
2093,1494,1562
2493,1504,1558
3658,1493,1567
3136,1504,1561
2063,1502,1561
1621,1504,1560
1716,1492,1559
1739,1508,1553
1757,1496,1565
1776,1500,1553
1814,1491,1562
1840,1499,1551
1863,1492,1561
1855,1504,1556
1950,1492,1561
1968,1493,1552
1966,1488,1562
2011,1501,1559
2017,1496,1562
2013,1498,1558
1993,1496,1563
2029,1503,1560
1940,1500,1561
1946,1498,1551
1897,1495,1548
1879,1499,1554
1840,1498,1556
1853,1497,1556
1853,1492,1547
1815,1485,1556
1821,1496,1544
1808,1490,1559
1871,1493,1544
1869,1489,1556
1887,1497,1544
1872,1494,1552
1912,1493,1548
1917,1491,1548
1937,1489,1553
1959,1491,1553
1948,1495,1542
1975,1492,1553
2002,1488,1558
2032,1496,1553
2151,1491,1548
2129,1488,1549
2135,1500,1545
2160,1492,1550
2107,1496,1545
1997,1493,1556
1961,1496,1548
1946,1496,1549
1947,1497,1541
1967,1493,1553
1936,1484,1553
1932,1490,1548
1936,1493,1542
2070,1489,1542
2373,1489,1546
3230,1490,1545
3170,1490,1546
2093,1491,1541
1638,1490,1540
1620,1481,1538
1714,1482,1549
1722,1485,1538
1745,1489,1550
1809,1499,1543
1847,1488,1545
1851,1491,1543
1882,1490,1542
1910,1495,1539
1927,1494,1540
1963,1491,1542
2034,1494,1547
2039,1492,1546
2064,1500,1544
2061,1490,1544
2030,1487,1545
