0,0,0
0,82665,82766
0,148168,148194
0,206856,198808
0,216406,202031
0,216449,202065
0,216488,202059
0,216520,202090
0,216564,202110
0,216601,202126
0,216650,202139
0,216703,202172
21,216779,202211
77,216825,202210
100,216840,202224
112,216867,202221
115,216856,202215
144,216855,202207
222,216841,202207
307,216825,202198
317,216794,202179
362,216771,202174
402,216781,202172
437,216784,202187
563,216817,202187
592,216854,202210
611,216911,202223
675,216976,202262
705,217052,202284
734,217096,202313
752,217182,202338
727,217237,202372
723,217286,202378
825,217306,202397
787,217346,202404
843,217375,202418
907,217412,202438
923,217450,202451
979,217486,202453
1017,217524,202469
1232,217534,202478
1664,217566,202487
1856,217579,202498
710,217605,202498
559,217617,202498
1106,217636,202497
1321,217630,202510
1307,217638,202503
1369,217660,202511
1385,217655,202505
1399,217677,202516
1440,217686,202511
1486,217701,202533
1519,217737,202544
1517,217779,202550
1534,217823,202571
1607,217881,202582
1632,217919,202619
1658,217977,202608
1674,217979,202634
1680,218013,202632
1760,218033,202642
1791,217982,202608
1759,217795,202524
1733,217536,202409
1680,217201,202258
1633,216883,202157
1530,216634,202029
1476,216426,201950
1418,216279,201889
1371,216162,201854
1399,216107,201827
1415,216078,201823
1466,216077,201831
1488,216133,201854
1531,216181,201882
1557,216247,201919
1585,216298,201942
1604,216356,201946
1603,216369,201963
1646,216393,201942
1652,216382,201956
1680,216437,201946
1672,216494,201981
1726,216572,202014
1710,216647,202053
1692,216697,202080
1744,216736,202092
1710,216744,202093
1750,216733,202092
1749,216725,202099
1781,216716,202071
1801,216704,202077
1791,216681,202059
1805,216684,202062
1860,216708,202072
1829,216739,202088
1915,216775,202114
1887,216808,202141
1867,216880,202155
1837,216941,202193
1838,216999,202213
1846,217064,202238
1848,217152,202262
1849,217225,202298
1858,217309,202345
1856,217398,202369
1906,217471,202410
1921,217540,202433
1918,217599,202453
1923,217649,202473
2128,217673,202492
2448,217708,202506
2809,217750,202511
1776,217776,202527
1361,217831,202534
1713,217869,202561
1971,217901,202564
2014,217917,202583
2003,217918,202568
1991,217926,202579
1983,217951,202579
2093,217971,202606
2079,218020,202627
2002,218075,202649
2013,218132,202680
2043,218201,202697
2073,218267,202733
2092,218353,202748
2086,218382,202783
2147,218448,202789
2170,218482,202804
2151,218495,202801
2175,218444,202789
2128,218307,202713
2092,218038,202596
2071,217713,202450
1948,217391,202319
1873,217100,202210
1799,216849,202114
1738,216660,202028
1713,216527,201964
1729,216419,201945
1728,216386,201932
1719,216388,201936
1733,216414,201951
1707,216463,201971
1724,216538,202008
1745,216625,202031
1775,216671,202061
1785,216730,202072
1801,216753,202089
1810,216802,202100
1776,216837,202122
1745,216910,202146
1774,216980,202183
1781,217063,202205
1747,217123,202227
1715,217145,202242
1764,217131,202214
1744,217105,202209
1746,217073,202196
1755,217049,202197
1770,217034,202174
1728,216981,202172
1791,216988,202161
1798,217009,202173
1795,217025,202172
1776,217055,202193
1824,217092,202210
1825,217161,202225
1760,217209,202260
1728,217292,202291
1741,217337,202318
1723,217424,202343
1663,217497,202383
1670,217560,202404
1649,217617,202435
1647,217683,202458
1643,217731,202469
1787,217746,202489
2057,217780,202484
2622,217776,202497
1763,217796,202477
1090,217794,202494
1264,217826,202497
1637,217825,202516
1719,217856,202527
1655,217893,202531
1682,217912,202544
1755,217914,202533
1735,217918,202531
1744,217940,202540
1744,217945,202566
1711,218015,202575
1712,218057,202610
1753,218138,202627
1749,218192,202667
1810,218264,202692
1794,218297,202707
1799,218339,202716
1817,218339,202723
1825,218309,202709
1837,218204,202637
1845,217993,202562
1820,217724,202421
1731,217411,202301
1634,217130,202172
1522,216871,202066
1456,216646,201967
1425,216473,201897
1415,216342,201855
1443,216312,201858
1475,216284,201854
1523,216311,201861
1533,216353,201904
1600,216405,201906
1626,216456,201936
1629,216515,201945
1671,216536,201966
1707,216578,201981
1683,216593,201987
1745,216630,202004
1710,216693,202027
1732,216760,202065
1731,216807,202070
1776,216844,202095
1729,216862,202096
1760,216849,202099
1791,216839,202075
1747,216791,202067
1743,216767,202036
1763,216705,202018
1794,216685,201987
1799,216653,201990
1813,216656,201989
1839,216668,201989
1841,216698,202013
1794,216760,202029
1847,216794,202056
1822,216869,202074
1785,216914,202111
1730,216998,202132
1726,217060,202172
1755,217126,202183
1723,217191,202214
1716,217235,202239
1712,217279,202253
1709,217315,202261
1697,217355,202274
1712,217385,202286
1863,217433,202300
2302,217458,202320
2389,217486,202321
1279,217512,202337
1115,217528,202337
1535,217568,202352
1727,217576,202349
1731,217578,202367
1726,217595,202365
1755,217623,202379
1760,217665,202397
1712,217707,202406
1727,217742,202424
1728,217795,202446
1682,217820,202464
1708,217873,202477
1758,217911,202490
1807,217960,202499
1733,217998,202531
1791,218074,202552
1812,218113,202587
1866,218120,202568
1886,218013,202526
1893,217821,202416
1878,217545,202302
1799,217240,202187
1738,216941,202047
1670,216678,201954
1554,216466,201856
1479,216293,201797
1466,216195,201753
1509,216120,201731
1535,216088,201724
1521,216111,201736
1564,216152,201743
1567,216198,201774
1616,216275,201792
1600,216334,201808
1647,216399,201840
1668,216445,201856
1612,216473,201880
1622,216518,201899
1651,216552,201917
1616,216606,201925
1639,216680,201963
1619,216749,201983
1623,216793,202008
1663,216825,202021
1648,216842,202019
1614,216841,202029
1631,216821,202012
1616,216794,202010
1598,216789,201996
1584,216776,201998
1563,216793,201988
1601,216785,202006
1629,216809,202019
1625,216846,202040
1637,216899,202052
1631,216951,202083
1626,217010,202097
1600,217073,202115
1521,217130,202163
1526,217193,202163
1488,217217,202185
1535,217269,202191
1584,217299,202219
1534,217360,202240
1569,217406,202265
1573,217444,202279
1600,217463,202289
1885,217477,202291
2339,217485,202287
1968,217492,202288
969,217493,202280
1149,217498,202290
1525,217530,202293
1681,217536,202301
1649,217565,202299
1647,217574,202325
1666,217596,202320
1677,217598,202329
1621,217611,202306
1673,217595,202314
1712,217615,202316
1712,217636,202324
1730,217662,202326
1733,217705,202352
1779,217750,202369
1776,217786,202376
1810,217824,202394
1856,217825,202379
1856,217786,202362
1840,217699,202310
1845,217511,202238
1810,217241,202109
1731,216935,201987
1648,216664,201871
1519,216412,201767
1503,216193,201677
1395,216030,201618
1377,215896,201567
1397,215811,201530
1403,215776,201518
1438,215777,201512
1455,215821,201549
1445,215887,201557
1509,215929,201588
1495,215974,201592
1509,216009,201609
1508,216059,201632
1535,216083,201655
1535,216120,201660
1585,216172,201688
1565,216231,201712
1615,216298,201745
1566,216364,201771
1571,216408,201778
1581,216411,201781
1600,216430,201772
1584,216400,201782
1559,216401,201766
1654,216371,201756
1619,216348,201725
1679,216328,201727
1665,216335,201726
1616,216317,201729
1633,216359,201742
1686,216395,201771
1674,216437,201791
1612,216501,201811
1599,216554,201849
1575,216622,201860
1567,216665,201889
1647,216716,201895
1664,216741,201915
1655,216797,201926
1677,216835,201958
1706,216881,201968
1846,216915,201984
2075,216931,201978
2617,216963,201980
1795,216954,202006
1163,216977,201999
1315,216991,202002
1709,216995,202002
1785,216982,202013
1709,216970,201991
1749,216965,202006
1763,216976,201994
1744,216971,201997
1758,216972,201997
1750,216992,202004
1808,217017,202024
1767,217060,202033
1794,217094,202060
1789,217140,202063
1785,217173,202099
1804,217222,202105
1840,217236,202102
1806,217261,202108
1840,217250,202100
1776,217186,202065
1773,217058,202001
1739,216851,201914
1625,216624,201799
1535,216380,201704
1392,216161,201606
1307,215959,201535
1274,215812,201472
1275,215699,201443
1279,215651,201410
1258,215618,201420
1275,215654,201429
1394,215682,201441
1381,215747,201461
1373,215805,201486
1389,215851,201513
1367,215883,201528
1401,215905,201533
1393,215933,201532
1456,215982,201568
1447,216026,201573
1457,216099,201617
1466,216177,201636
1451,216210,201656
1427,216235,201662
1456,216231,201650
1437,216211,201655
1423,216209,201634
1474,216174,201631
1454,216140,201609
1481,216134,201609
1525,216154,201625
1582,216160,201636
1505,216209,201649
1535,216239,201669
1591,216293,201682
1505,216339,201708
1555,216399,201731
1504,216464,201767
1505,216539,201788
1488,216611,201819
1581,216689,201866
1622,216752,201879
1602,216805,201913
1651,216850,201905
1623,216878,201934
1617,216919,201932
1729,216945,201949
2017,216964,201954
2437,216987,201963
1707,217014,201969
1018,217038,201985
1344,217051,201986
1680,217076,201998
1687,217083,202018
1669,217115,202023
1726,217128,202038
1709,217161,202035
1679,217210,202072
1735,217222,202074
1725,217273,202093
1733,217323,202100
1743,217351,202111
1745,217384,202130
1813,217421,202135
1820,217448,202174
1840,217503,202184
1815,217530,202201
1859,217552,202198
1886,217497,202184
1856,217381,202107
1857,217146,202010
1818,216874,201887
1714,216579,201755
1616,216319,201654
1505,216091,201555
1426,215890,201478
1377,215774,201428
1421,215678,201401
1451,215647,201377
1443,215632,201386
1535,215652,201384
1535,215685,201400
1584,215732,201424
1521,215775,201441
1559,215813,201452
1663,215858,201473
1671,215888,201489
1677,215921,201497
1667,215961,201530
1687,216045,201546
1691,216120,201598
1697,216185,201617
1711,216243,201640
1689,216293,201656
1707,216292,201660
1679,216307,201655
1671,216304,201661
1699,216302,201653
1681,216297,201669
1685,216280,201643
1671,216293,201641
1675,216293,201668
1767,216337,201667
1737,216373,201693
1730,216427,201710
1735,216477,201749
1719,216560,201773
1722,216614,201809
1695,216695,201840
1644,216757,201859
1655,216814,201880
1628,216843,201879
1639,216876,201905
1651,216952,201916
1693,216992,201951
1706,217041,201959
1648,217078,202006
1698,217112,201994
1865,217125,202011
2299,217152,202018
2307,217149,202015
1189,217162,202018
1178,217183,202030
1614,217199,202040
1769,217247,202036
1715,217269,202068
1776,217299,202080
1776,217327,202086
1732,217372,202090
1731,217399,202118
1763,217436,202121
1724,217466,202133
1743,217519,202147
1749,217555,202175
1747,217618,202191
1765,217688,202226
1776,217728,202253
1821,217775,202254
1791,217780,202262
1819,217773,202245
1841,217685,202209
1793,217515,202092
1847,217229,201984
1753,216936,201857
1614,216675,201744
1521,216424,201649
1436,216227,201555
1367,216041,201509
1372,215936,201449
1335,215852,201432
1343,215841,201411
1407,215840,201429
1395,215873,201429
1429,215924,201472
1435,215983,201492
1446,216046,201527
1486,216077,201539
1507,216109,201540
1510,216109,201539
1488,216142,201546
1575,216174,201565
1567,216236,201593
1499,216306,201628
1521,216374,201635
1581,216403,201671
1507,216428,201680
1476,216445,201681
1486,216435,201690
1505,216440,201678
1521,216421,201680
1485,216416,201663
1487,216405,201678
1520,216434,201669
1579,216434,201695
1575,216468,201693
1573,216517,201715
1585,216555,201751
1571,216611,201778
1622,216672,201802
1597,216743,201819
1535,216798,201853
1522,216851,201853
1535,216884,201883
1663,216922,201874
1630,216928,201899
1616,216972,201903
1616,217000,201923
1633,217027,201934
1712,217051,201949
1920,217077,201956
2532,217101,201962
2112,217109,201960
1099,217131,201970
1241,217134,201966
1520,217140,201962
1698,217137,201973
1650,217167,201969
1713,217173,201982
1721,217203,201975
1722,217222,202004
1717,217259,202012
1707,217296,202038
1712,217340,202050
1710,217368,202068
1663,217407,202077
1689,217448,202087
1745,217498,202103
1757,217534,202115
1779,217559,202128
1817,217604,202134
1803,217591,202134
1811,217526,202088
1763,217344,202002
1765,217065,201868
1739,216756,201739
1599,216435,201595
1456,216170,201469
1359,215936,201384
1351,215759,201299
1341,215614,201259
1341,215553,201211
1330,215510,201218
1379,215534,201213
1391,215541,201221
1405,215566,201224
1466,215594,201234
1456,215640,201243
1439,215664,201251
1429,215677,201266
1463,215696,201279
1472,215711,201297
1484,215771,201297
1481,215820,201338
1424,215880,201347
1434,215910,201358
1424,215923,201365
1383,215933,201361
1395,215911,201344
1443,215883,201340
1373,215861,201316
1405,215846,201308
1414,215814,201314
1413,215813,201306
1455,215801,201312
1455,215811,201311
1518,215838,201323
1533,215869,201341
1445,215909,201359
1472,215981,201381
1433,216050,201415
1394,216124,201452
1463,216184,201462
1421,216228,201508
1472,216292,201513
1512,216346,201545
1532,216407,201555
1535,216462,201587
1603,216519,201612
1797,216561,201628
2289,216579,201629
2256,216600,201636
1201,216609,201649
1087,216621,201649
1461,216653,201659
1680,216687,201671
1669,216716,201691
1675,216766,201702
1724,216803,201722
1673,216815,201722
1683,216830,201728
1634,216837,201734
1597,216855,201728
1570,216871,201738
1495,216882,201750
1517,216908,201762
1472,216924,201750
1470,216933,201758
1445,216969,201759
1435,216956,201764
1466,216950,201736
1411,216878,201708
1319,216718,201615
1237,216486,201506
1091,216222,201373
869,215947,201245
718,215677,201135
575,215440,201006
449,215213,200929
401,215060,200851
304,214938,200809
200,214865,200786
85,214805,200774
0,214788,200759
0,214803,200776
0,214826,200781
0,214844,200783
0,214865,200797
0,214896,200797
0,214898,200809
0,214906,200796
0,214906,200799
0,214975,200816
0,215036,200853
0,215084,200886
0,215123,200890
0,215146,200902
0,215162,200903
0,215127,200898
0,215130,200888
0,215096,200872
0,215084,200857
0,215073,200852
0,215073,200858
0,215085,200855
0,215125,200878
0,215171,200893
0,215219,200913
0,215248,200933
0,215310,200972
0,215384,200996
0,215429,201006
0,215495,201040
0,215535,201066
35,215595,201071
33,215651,201099
115,215704,201110
176,215754,201133
240,215819,201148
250,215858,201170
411,215918,201199
766,215947,201206
1126,215960,201219
239,215970,201221
0,215982,201227
329,215998,201224
645,216011,201237
673,216038,201239
706,216085,201261
784,216106,201270
816,216136,201299
827,216163,201310
844,216206,201306
893,216250,201327
896,216295,201340
957,216340,201379
1018,216411,201393
1037,216463,201411
1130,216510,201426
1134,216554,201447
1175,216602,201460
1213,216612,201454
1234,216551,201414
1239,216410,201338
1314,216167,201240
1266,215895,201109
1210,215608,200993
1137,215343,200871
1083,215102,200756
1037,214914,200676
987,214765,200626
1059,214685,200596
1061,214651,200580
1099,214643,200577
1119,214694,200587
1170,214728,200620
1198,214797,200650
1237,214862,200680
1280,214905,200703
1275,214954,200721
1296,214975,200737
1325,215013,200740
1344,215044,200763
1344,215103,200780
1392,215160,200830
1408,215257,200846
1465,215293,200890
1424,215337,200893
1418,215386,200913
1393,215401,200915
1438,215395,200914
1451,215379,200907
1405,215377,200891
1395,215369,200894
1472,215375,200884
1508,215387,200909
1554,215434,200902
1532,215472,200938
1490,215539,200978
1491,215627,201012
1552,215747,201061
1519,215836,201100
1583,215925,201134
1521,216019,201179
1482,216098,201212
1469,216170,201246
1469,216240,201272
1534,216312,201294
1507,216365,201333
1521,216426,201353
1555,216467,201382
1590,216527,201398
1707,216575,201426
1936,216615,201440
2334,216639,201443
1408,216668,201454
1034,216687,201465
1326,216710,201477
1581,216753,201483
1629,216781,201512
1653,216816,201519
1601,216835,201532
1600,216858,201518
1600,216861,201536
1614,216907,201563
1678,216938,201582
1648,216990,201595
1622,217046,201632
1772,217093,201650
1765,217143,201664
1699,217136,201679
1740,217180,201663
1791,217186,201687
1801,217185,201665
1799,217133,201638
1830,217024,201584
1851,216791,201460
1809,216473,201307
1690,216143,201148
1649,215807,201010
1530,215540,200871
1507,215306,200788
1424,215132,200709
1450,215015,200666
1472,214962,200640
1482,214953,200638
1479,214962,200636
1511,214984,200656
1569,215030,200671
1594,215082,200689
1607,215111,200708
1627,215152,200716
1626,215184,200744
1596,215226,200754
1594,215256,200778
1607,215322,200808
1616,215400,200851
1629,215487,200879
1657,215530,200892
1633,215563,200894
1675,215565,200885
1679,215531,200873
1699,215503,200845
1705,215456,200838
1649,215445,200818
1658,215403,200828
1711,215398,200806
1727,215378,200823
1755,215395,200815
1735,215391,200836
1804,215427,200834
1767,215475,200863
1739,215548,200888
1658,215621,200927
1625,215691,200955
1666,215750,200976
1755,215803,200995
1748,215857,201026
1712,215901,201065
1726,215958,201079
1731,215987,201111
1671,216041,201122
1781,216079,201167
2089,216149,201184
2469,216192,201211
1696,216259,201239
1237,216305,201263
1515,216361,201281
1855,216413,201301
1839,216464,201319
1826,216501,201335
1831,216535,201341
1854,216582,201359
1839,216601,201366
1841,216612,201359
1866,216621,201381
1819,216653,201379
1791,216665,201390
1827,216688,201377
1853,216667,201380
1852,216669,201362
1803,216620,201338
1840,216577,201303
1811,216525,201277
1808,216436,201227
1834,216288,201151
1783,216060,201040
1723,215780,200903
1652,215481,200777
1584,215203,200642
1458,214938,200521
1433,214716,200403
1361,214548,200337
1357,214457,200290
1371,214397,200280
1377,214396,200280
1408,214426,200301
1401,214480,200333
1413,214552,200358
1379,214609,200390
1405,214674,200404
1483,214726,200424
1502,214777,200439
1495,214809,200464
1506,214858,200487
1534,214925,200534
1535,215019,200564
1522,215097,200607
1497,215181,200618
1505,215196,200654
1555,215221,200646
1519,215220,200631
1534,215199,200627
1565,215185,200609
1600,215144,200599
1582,215135,200581
1611,215133,200593
1533,215172,200605
1558,215211,200626
1584,215279,200647
1638,215369,200693
1631,215445,200726
1591,215522,200748
1505,215598,200780
1514,215676,200813
1490,215734,200851
1485,215808,200882
1488,215882,200920
1488,215951,200927
1567,215999,200954
1569,216049,200957
1634,216068,200968
1789,216108,200979
2283,216149,201004
1835,216204,201037
1093,216250,201076
1255,216301,201092
1645,216360,201133
1731,216431,201173
1680,216521,201198
1755,216587,201231
1794,216664,201252
1788,216717,201285
1779,216785,201296
1792,216822,201328
1808,216876,201342
1826,216917,201379
1895,216974,201410
2032,217021,201448
2142,217077,201461
2290,217089,201468
2438,217083,201453
2510,217059,201436
2535,216971,201388
2622,216847,201313
2702,216612,201202
2709,216331,201053
2635,216005,200916
2545,215716,200772
2448,215403,200652
2437,215168,200546
2407,214966,200469
2437,214823,200429
2410,214737,200409
2448,214734,200407
2517,214755,200418
2542,214792,200429
2598,214851,200443
2585,214904,200481
2586,214972,200486
2585,215000,200505
2559,215034,200510
2624,215048,200532
2594,215082,200533
2614,215100,200567
2559,215193,200583
2558,215265,200641
2559,215325,200649
2531,215346,200662
2511,215351,200651
2505,215332,200643
2443,215306,200616
2399,215243,200592
2418,215213,200572
2392,215192,200565
2434,215173,200561
2418,215175,200557
2409,215196,200573
2382,215226,200570
2334,215273,200607
2288,215320,200618
2259,215378,200646
2219,215432,200675
2187,215493,200705
2209,215558,200733
2211,215626,200776
2240,215698,200807
2170,215769,200830
2160,215824,200870
2165,215860,200862
2338,215887,200883
2626,215940,200906
2875,215962,200930
1746,216004,200950
1599,216023,200988
2025,216058,201001
2190,216099,201038
2213,216115,201055
2117,216123,201069
2030,216135,201073
2101,216132,201063
2145,216142,201049
2075,216169,201060
2065,216170,201074
2067,216198,201061
1995,216180,201063
1898,216191,201057
1901,216169,201068
1926,216154,201038
1899,216142,201046
1921,216110,201028
1936,216053,201000
1892,215936,200935
1937,215719,200817
1872,215413,200683
1808,215095,200520
1725,214749,200376
1613,214449,200219
1463,214161,200108
1407,213941,199994
1328,213757,199918
1381,213630,199865
1391,213565,199835
1344,213511,199838
1343,213539,199829
1354,213561,199852
1377,213612,199863
1438,213649,199894
1360,213679,199889
1391,213684,199902
1328,213706,199896
1339,213704,199897
1301,213724,199903
1313,213738,199899
1346,213758,199903
1302,213784,199904
1302,213782,199917
1307,213765,199896
1325,213743,199892
1307,213710,199858
1291,213650,199843
1263,213627,199810
1315,213585,199794
1365,213558,199769
1385,213576,199785
1337,213576,199794
1328,213616,199807
1382,213673,199850
1372,213749,199892
1392,213840,199950
1424,213945,199996
1427,214075,200071
1535,214231,200125
1597,214373,200201
1661,214528,200254
1691,214686,200330
1707,214855,200405
1717,215009,200479
1847,215167,200531
2066,215286,200586
2559,215388,200630
2178,215502,200675
1305,215564,200723
1648,215628,200740
2102,215661,200774
2239,215714,200782
2315,215738,200799
2327,215772,200806
2433,215801,200812
2507,215878,200830
2517,215941,200867
2524,216023,200906
2512,216108,200938
2551,216204,201001
2643,216304,201019
2610,216384,201067
2665,216465,201094
2687,216553,201147
2736,216629,201174
2721,216680,201202
2759,216658,201189
2735,216525,201109
2745,216249,200982
2672,215912,200822
2619,215546,200651
2475,215224,200502
2345,214934,200382
2299,214722,200257
2199,214534,200179
2124,214414,200120
2107,214334,200090
1980,214290,200061
1932,214296,200061
1858,214294,200050
1776,214300,200058
1760,214298,200084
1726,214329,200085
1696,214343,200106
1663,214356,200102
1632,214347,200115
1642,214346,200092
1568,214378,200107
1523,214407,200119
1424,214436,200124
1421,214441,200123
1380,214434,200119
1347,214433,200114
1347,214444,200121
1301,214474,200139
1215,214496,200134
1222,214492,200143
1171,214494,200121
1119,214493,200120
1104,214517,200124
1109,214547,200125
1122,214575,200128
1095,214604,200144
1075,214633,200158
1045,214680,200172
982,214709,200190
861,214745,200186
822,214782,200226
833,214839,200248
765,214897,200278
751,214945,200307
781,215001,200333
805,215055,200345
796,215106,200363
835,215153,200379
976,215198,200395
1406,215232,200424
1407,215282,200426
409,215311,200455
430,215352,200460
862,215381,200479
1009,215420,200501
976,215451,200506
999,215501,200518
1007,215536,200527
1035,215590,200552
1104,215625,200565
1076,215650,200587
1119,215691,200603
1127,215717,200656
1115,215787,200660
1163,215859,200708
1238,215959,200737
1231,216044,200802
1321,216183,200855
1433,216335,200931
1451,216398,200949
1535,216408,200943
1535,216321,200886
1531,216152,200797
1563,215925,200689
1470,215704,200587
1421,215492,200508
1382,215333,200431
1407,215187,200391
1424,215106,200347
1455,215051,200350
1449,215038,200341
1501,215050,200348
1584,215062,200357
1574,215106,200367
1568,215149,200383
1648,215191,200402
1657,215233,200427
1645,215272,200429
1655,215288,200459
1676,215327,200452
1677,215372,200496
1730,215449,200513
1747,215493,200532
1762,215543,200551
1745,215550,200560
1771,215557,200552
1791,215536,200551
1722,215515,200518
1762,215480,200504
1791,215451,200486
1794,215429,200480
1821,215428,200481
1861,215446,200488
1856,215474,200516
1822,215524,200513
1859,215557,200552
1792,215616,200559
1806,215650,200601
1804,215725,200619
1808,215775,200644
1775,215834,200669
1773,215877,200704
1767,215914,200716
1790,215935,200726
1763,215964,200740
1859,215992,200735
2184,216026,200764
2608,216064,200762
1750,216075,200779
1329,216129,200782
1574,216140,200798
1870,216157,200801
1906,216196,200813
1876,216244,200825
1890,216292,200853
1859,216330,200867
1872,216366,200885
1892,216394,200907
1905,216428,200917
1881,216466,200949
1913,216525,200967
1919,216576,200996
1954,216633,201020
1969,216684,201043
1961,216739,201067
1987,216766,201069
2001,216796,201076
2014,216802,201077
2033,216784,201072
1997,216709,201008
1935,216565,200948
1852,216390,200857
1782,216177,200771
1681,216009,200684
1623,215852,200623
1588,215718,200566
1584,215625,200515
1616,215547,200482
1616,215519,200475
1680,215519,200481
1638,215549,200485
1617,215578,200508
1629,215642,200521
1686,215684,200552
1687,215738,200559
1626,215775,200579
1677,215817,200587
1680,215871,200625
1639,215962,200668
1623,216027,200701
1607,216092,200720
1567,216134,200736
1600,216129,200734
1584,216123,200717
1535,216092,200703
1555,216082,200683
1587,216024,200669
1585,216011,200653
1610,215987,200651
1647,215979,200627
1586,215963,200627
1571,215984,200634
1489,216029,200652
1434,216079,200673
1450,216139,200704
1463,216207,200731
1466,216267,200749
1466,216332,200788
1463,216390,200817
1470,216456,200854
1471,216524,200873
1596,216573,200903
1814,216613,200910
2297,216656,200942
1506,216706,200949
970,216750,200978
1267,216802,200985
1583,216843,201003
1616,216888,201029
1638,216942,201049
1613,216989,201069
1643,217040,201093
1728,217102,201122
1726,217155,201151
1715,217205,201178
1762,217237,201189
1797,217264,201196
1820,217293,201221
1782,217348,201248
1860,217371,201255
1881,217408,201274
1899,217411,201275
1860,217412,201262
1829,217392,201263
1851,217348,201231
1843,217236,201174
1834,217107,201090
1745,216920,201008
1616,216741,200916
1510,216559,200843
1424,216405,200770
1447,216274,200720
1408,216164,200673
1421,216114,200652
1422,216068,200647
1441,216064,200624
1456,216084,200649
1458,216127,200645
1507,216165,200679
1505,216211,200687
1516,216249,200700
1485,216286,200704
1508,216308,200704
1479,216344,200705
1529,216371,200720
1510,216419,200742
1482,216455,200769
1475,216470,200794
1485,216483,200785
1503,216468,200780
1515,216447,200756
1559,216394,200750
1535,216353,200710
1584,216313,200692
1562,216280,200669
1527,216245,200660
1445,216223,200636
1494,216225,200640
1522,216241,200657
1602,216275,200668
1616,216311,200686
1598,216346,200700
1651,216398,200730
1639,216460,200737
1686,216482,200768
1861,216527,200769
2239,216569,200779
2437,216612,200809
1490,216634,200809
1274,216647,200817
1481,216684,200824
1721,216711,200846
1719,216733,200848
1792,216749,200864
1765,216772,200865
1776,216781,200885
1782,216814,200886
1847,216819,200887
1821,216851,200900
1856,216894,200911
1826,216939,200925
1843,216958,200941
1867,216995,200963
1849,217043,200980
1843,217095,201001
1890,217139,201015
1859,217169,201039
1834,217202,201034
1841,217187,201049
1835,217139,200994
1774,217025,200951
1715,216891,200885
1569,216736,200820
1505,216601,200762
1502,216467,200708
1467,216350,200661
1458,216265,200616
1456,216216,200606
1456,216196,200600
1512,216180,200599
1531,216200,200600
1557,216250,200640
1535,216294,200656
1535,216344,200670
1555,216388,200674
1579,216427,200694
1650,216478,200712
1607,216529,200730
1637,216579,200762
1630,216641,200778
1643,216703,200812
1616,216742,200814
1590,216730,200830
1598,216738,200809
1663,216698,200803
1663,216662,200776
1617,216623,200768
1610,216590,200740
1653,216578,200745
1607,216561,200746
1534,216576,200737
1507,216586,200756
1525,216630,200765
1522,216673,200792
1535,216725,200802
1515,216760,200832
1535,216806,200831
1535,216856,200865
1594,216907,200874
1731,216953,200900
2066,217007,200929
2224,217063,200948
1175,217095,200973
1073,217122,200972
1475,217146,200986
1616,217175,200983
1637,217197,201010
1690,217222,201002
1699,217244,201024
1738,217274,201040
1797,217326,201069
1829,217389,201110
1842,217441,201128
1872,217471,201145
1947,217499,201142
2000,217499,201143
2018,217542,201151
2047,217554,201183
2079,217581,201176
2124,217614,201194
2123,217643,201199
2145,217617,201171
2161,217531,201132
2153,217401,201065
2134,217244,200982
2038,217059,200911
1930,216893,200838
1856,216751,200777
1832,216620,200744
1815,216528,200683
1840,216466,200663
1872,216442,200652
1904,216447,200654
1903,216468,200668
1937,216505,200684
1936,216530,200680
1959,216556,200707
1965,216578,200704
1953,216600,200714
1989,216623,200720
1951,216645,200732
1959,216689,200760
2034,216743,200774
2009,216788,200816
2032,216839,200818
2014,216852,200828
2021,216865,200821
2011,216864,200823
2027,216857,200820
1975,216840,200810
2035,216834,200805
2053,216820,200803
2023,216834,200803
1985,216856,200805
1968,216854,200825
1955,216911,200837
2021,216957,200872
2019,217013,200886
2018,217066,200918
2032,217129,200941
2064,217170,200965
2111,217233,200983
2278,217295,201010
2672,217339,201028
2754,217386,201049
1703,217437,201079
1613,217500,201090
2075,217536,201128
2251,217575,201127
2278,217586,201129
2271,217664,201169
2288,217717,201201
2304,217687,201172
2309,217690,201187
2320,217775,201252
2345,217874,201305
2354,217976,201351
2386,218055,201365
2403,218055,201365
2434,218052,201346
2448,218056,201346
2427,218060,201341
2416,218111,201380
2448,218191,201403
2448,218215,201422
2448,218193,201397
2394,218056,201339
2320,217903,201254
2151,217727,201176
2087,217564,201111
1962,217434,201053
1941,217348,201024
1907,217288,200996
1932,217236,200986
1931,217228,200963
1958,217206,200981
2000,217232,200978
1998,217257,201006
1992,217324,201030
2000,217354,201051
2007,217380,201060
2013,217399,201072
2043,217434,201077
2074,217438,201086
2032,217489,201106
2026,217543,201132
2039,217602,201159
1985,217634,201170
2011,217666,201179
1999,217674,201171
1984,217664,201176
1990,217663,201151
2000,217617,201132
1990,217599,201103
2060,217574,201108
2059,217568,201088
2001,217556,201099
1950,217574,201104
1904,217583,201114
1819,217609,201123
1831,217627,201144
1854,217670,201152
1870,217706,201179
1810,217746,201187
1826,217782,201192
1838,217826,201215
1806,217865,201226
1940,217895,201242
2237,217920,201250
2593,217925,201275
1689,217995,201271
1245,218014,201283
1483,218034,201296
1822,218041,201294
1863,218046,201293
1842,218064,201302
1875,218082,201301
1851,218102,201314
1873,218119,201336
1871,218148,201336
1872,218147,201344
1834,218163,201335
1857,218176,201361
1855,218195,201368
1838,218215,201377
1863,218232,201368
1930,218241,201384
1901,218268,201379
1907,218276,201386
1923,218263,201375
1941,218206,201333
1920,218074,201276
1904,217929,201206
1797,217731,201131
1679,217571,201042
1595,217379,200969
1535,217219,200895
1579,217111,200844
1584,217028,200816
1564,216975,200801
1535,216949,200790
1584,216962,200795
1599,216966,200811
1604,217001,200807
1615,217008,200823
1635,217033,200819
1658,217034,200829
1698,217058,200824
1693,217070,200842
1694,217101,200855
1699,217147,200873
1716,217175,200878
1643,217201,200890
1630,217211,200900
1659,217225,200899
1637,217187,200909
1643,217199,200882
1649,217156,200880
1669,217133,200854
1729,217098,200846
1717,217082,200839
1713,217065,200842
1722,217084,200836
1653,217114,200851
1609,217135,200867
1535,217161,200880
1570,217217,200897
1595,217250,200921
1593,217293,200940
1535,217327,200930
1553,217354,200960
1531,217402,200960
1575,217435,200988
1602,217470,200994
1831,217480,201021
2338,217506,201016
1779,217515,201027
988,217534,201030
1186,217539,201030
1535,217546,201036
1631,217572,201036
1638,217566,201046
1627,217595,201043
1639,217601,201068
1699,217630,201075
1632,217651,201091
1648,217693,201100
1647,217728,201130
1689,217778,201153
1690,217808,201153
1699,217836,201168
1727,217858,201176
1715,217890,201186
1791,217919,201195
1785,217946,201208
1790,217947,201188
1792,217893,201177
1821,217795,201122
1802,217632,201047
1739,217449,200944
1600,217263,200870
1488,217099,200786
1424,216935,200727
1390,216799,200668
1422,216716,200637
1455,216651,200611
1456,216639,200609
1477,216638,200619
1526,216652,200618
1575,216663,200626
1586,216684,200634
1583,216680,200636
1599,216687,200642
1616,216678,200643
1619,216712,200661
1600,216731,200661
1619,216760,200684
1647,216803,200703
1650,216837,200719
1661,216859,200721
1631,216864,200724
1648,216868,200712
1647,216859,200713
1611,216845,200700
1615,216829,200699
1653,216803,200696
1647,216790,200686
1697,216783,200677
1662,216781,200674
1709,216798,200683
1717,216802,200692
1648,216837,200707
1648,216889,200722
1605,216938,200763
1584,216991,200767
1594,217029,200797
1643,217079,200818
1598,217134,200835
1629,217171,200861
1631,217198,200873
1634,217219,200885
1667,217259,200887
1877,217281,200912
2398,217317,200906
2085,217328,200931
1102,217357,200925
1210,217374,200950
1616,217375,200939
1721,217380,200948
1713,217371,200941
1687,217371,200936
1710,217378,200918
1680,217399,200902
1668,217417,200908
1598,217451,200899
1613,217484,200930
1584,217554,200944
1479,217614,200980
1519,217702,201021
1446,217771,201067
1483,217871,201105
1569,217933,201141
1483,217989,201157
1531,218033,201178
1487,218006,201171
1430,217915,201110
1415,217770,201043
1296,217616,200957
1203,217429,200889
1109,217268,200807
1008,217107,200754
999,216986,200695
962,216899,200669
971,216835,200648
959,216812,200636
1009,216792,200652
983,216809,200646
1035,216809,200663
1123,216814,200660
1159,216799,200672
1200,216815,200672
1227,216829,200689
1296,216839,200698
1343,216873,200710
1396,216926,200743
1422,216993,200767
1456,217026,200798
1525,217080,200811
1561,217105,200829
1575,217135,200831
1647,217137,200842
1646,217144,200838
1701,217116,200833
1709,217115,200815
1734,217101,200819
1751,217104,200821
1734,217115,200833
1776,217131,200847
1732,217173,200860
1743,217196,200879
1696,217255,200891
1665,217277,200927
1670,217327,200936
1662,217374,200949
1697,217408,200967
1725,217452,200984
1747,217478,201004
1765,217519,201014
1920,217545,201031
2257,217560,201036
2453,217574,201051
1401,217589,201035
1162,217600,201064
1558,217625,201048
1773,217632,201065
1776,217653,201058
1731,217657,201060
1776,217663,201066
1757,217668,201078
1803,217685,201072
1793,217685,201080
1777,217695,201075
1755,217695,201071
1788,217712,201069
1849,217733,201072
1828,217723,201076
1850,217774,201077
1844,217772,201119
1839,217794,201093
1850,217759,201097
1808,217706,201069
1808,217619,201035
1761,217493,200970
1681,217332,200890
1616,217127,200783
1508,216913,200692
1389,216691,200595
1264,216521,200491
1213,216360,200429
1197,216264,200388
1227,216205,200379
1276,216182,200366
1259,216174,200365
1297,216169,200360
1323,216176,200374
1327,216168,200371
1344,216163,200358
1337,216143,200361
1410,216158,200345
1408,216157,200353
1457,216176,200358
1472,216220,200399
1429,216259,200386
1370,216275,200404
1342,216291,200394
1335,216285,200398
1335,216282,200389
1309,216265,200378
1278,216237,200371
1263,216221,200354
1281,216183,200339
1282,216163,200326
1227,216154,200332
1153,216153,200316
1135,216162,200327
1146,216186,200330
1136,216196,200354
1104,216220,200356
1106,216256,200371
1151,216286,200385
1129,216330,200410
1115,216355,200409
1299,216388,200426
1579,216408,200431
1967,216427,200426
1134,216453,200440
656,216494,200460
947,216492,200460
1223,216525,200457
1308,216529,200473
1298,216539,200480
1285,216549,200470
1333,216557,200469
1328,216578,200482
1346,216589,200478
1345,216615,200488
1392,216625,200503
1391,216666,200517
1392,216690,200529
1418,216730,200545
1453,216755,200558
1490,216776,200557
1513,216803,200569
1557,216808,200574
1530,216806,200574
1511,216767,200551
1530,216669,200502
1503,216524,200428
1430,216335,200354
1313,216135,200274
1264,215939,200180
1215,215753,200114
1227,215588,200039
1237,215476,199992
1279,215370,199947
1328,215315,199932
1329,215271,199913
1351,215254,199902
1415,215245,199909
1425,215260,199915
1456,215275,199920
1505,215286,199912
1533,215288,199906
1557,215290,199897
1556,215297,199908
1500,215327,199920
1519,215373,199941
1535,215414,199943
1507,215420,199954
1520,215433,199946
1527,215449,199955
1523,215427,199956
1559,215410,199927
1557,215348,199914
1567,215336,199890
1584,215292,199879
1597,215263,199865
1601,215258,199857
1630,215262,199865
1627,215263,199872
1558,215268,199875
1471,215287,199880
1453,215297,199875
1491,215315,199891
1527,215328,199897
1493,215356,199898
1557,215368,199906
1615,215403,199906
1580,215424,199917
1673,215444,199927
1898,215484,199927
2389,215507,199931
1669,215542,199949
1154,215561,199962
1517,215607,199970
1850,215621,199988
1894,215665,199998
1907,215688,200018
1971,215717,200017
1994,215747,200037
1990,215760,200042
2043,215799,200063
2078,215829,200081
2075,215876,200110
2093,215930,200128
2160,215967,200134
2176,216013,200157
2192,216054,200161
2195,216062,200178
2227,216102,200175
2277,216110,200191
2271,216085,200161
2291,215987,200120
2269,215865,200062
2183,215683,199988
2164,215474,199893
2064,215267,199809
1948,215055,199721
1851,214880,199638
1856,214736,199596
1859,214634,199544
1877,214587,199540
1925,214600,199543
1902,214617,199567
1942,214699,199596
2032,214753,199629
2032,214837,199662
2035,214877,199698
2082,214922,199699
2063,214947,199722
2142,214994,199742
2145,215053,199772
2128,215120,199805
2128,215202,199846
2071,215272,199888
2097,215328,199909
2038,215369,199931
2039,215408,199920
2032,215428,199945
2021,215423,199928
1968,215426,199936
1980,215433,199942
1977,215449,199953
1971,215489,199962
1936,215535,199989
1953,215599,200024
1923,215676,200049
1936,215734,200084
1999,215836,200125
1968,215922,200176
1951,216029,200213
1959,216105,200263
1971,216195,200293
1893,216288,200326
1858,216358,200362
1826,216411,200395
1830,216477,200434
1808,216561,200464
1821,216618,200502
1822,216691,200525
1807,216744,200556
1923,216804,200574
2133,216854,200605
2597,216888,200618
2093,216944,200640
1226,216969,200664
1422,217031,200686
1799,217076,200706
1859,217118,200725
1838,217163,200736
1885,217201,200746
1918,217215,200766
1907,217253,200776
1887,217283,200795
1922,217315,200814
1947,217349,200833
1974,217395,200848
1999,217428,200868
1974,217492,200897
1966,217533,200913
2007,217577,200931
2015,217635,200942
2000,217647,200965
2112,217645,200940
2064,217558,200910
2000,217412,200825
1983,217198,200741
1953,216982,200637
1875,216737,200532
1744,216523,200437
1667,216333,200372
1631,216186,200318
1664,216113,200285
1651,216074,200271
1680,216069,200284
1693,216118,200298
1706,216182,200331
1731,216234,200372
1715,216310,200394
1735,216351,200430
1724,216402,200441
1711,216447,200473
1716,216490,200482
1718,216533,200511
1695,216614,200546
1679,216691,200591
1696,216761,200630
1686,216812,200629
1682,216834,200644
1662,216853,200633
1664,216849,200648
1683,216840,200633
1647,216818,200635
1630,216792,200602
1634,216758,200599
1680,216744,200603
1742,216729,200588
1714,216727,200591
1623,216737,200589
1683,216776,200615
1686,216831,200629
1675,216882,200672
1630,216962,200699
1616,217020,200728
1642,217094,200751
1652,217157,200799
1639,217217,200809
1648,217279,200851
1637,217342,200871
1680,217374,200891
1675,217431,200901
1840,217478,200934
2343,217528,200949
2171,217558,200959
1182,217594,200993
1209,217640,201000
1457,217660,201035
1657,217696,201013
1638,217705,201030
1691,217718,201025
1706,217708,201027
1750,217725,201036
1754,217752,201034
1748,217764,201044
1741,217789,201050
1761,217816,201069
1735,217838,201080
1751,217875,201090
1732,217919,201102
1753,217945,201127
1777,217990,201136
1799,217999,201153
1767,218020,201145
1777,217992,201137
1756,217892,201086
1762,217717,200997
1713,217511,200898
1623,217281,200805
1533,217075,200708
1520,216873,200635
1472,216717,200570
1418,216611,200508
1402,216544,200501
1438,216524,200483
1457,216518,200494
1428,216551,200497
1513,216574,200522
1531,216615,200534
1575,216651,200551
1585,216684,200572
1604,216733,200589
1582,216761,200604
1595,216809,200620
1611,216859,200650
1587,216932,200674
1603,217002,200713
1573,217054,200732
1583,217100,200752
1588,217111,200757
1606,217108,200751
1557,217098,200739
1554,217085,200733
1600,217069,200722
1614,217065,200725
1639,217061,200735
1702,217079,200738
1655,217109,200754
1646,217136,200761
1683,217176,200795
1649,217237,200807
1633,217299,200849
1556,217374,200887
1580,217443,200922
1584,217508,200944
1605,217583,200983
1623,217639,201006
1587,217689,201024
1611,217728,201044
1664,217788,201059
1831,217817,201089
2201,217875,201106
2197,217914,201135
1125,217974,201140
1114,218010,201162
1496,218046,201169
1653,218079,201200
1649,218105,201199
1644,218129,201216
1648,218154,201222
1685,218181,201239
1643,218222,201267
1666,218247,201275
1680,218274,201297
1680,218313,201302
1712,218352,201324
1744,218384,201333
1764,218425,201353
1763,218469,201374
1814,218497,201373
1815,218511,201377
1828,218498,201354
1840,218423,201327
1886,218276,201234
1826,218052,201154
1783,217805,201032
1687,217549,200936
1584,217328,200829
1487,217118,200748
1392,216956,200671
1374,216835,200624
1381,216778,200600
1418,216755,200581
1431,216752,200579
1518,216773,200596
1535,216802,200627
1515,216846,200643
1535,216884,200664
1573,216913,200667
1569,216933,200684
1584,216951,200670
1617,216963,200695
1648,217009,200707
1615,217075,200732
1621,217140,200758
1599,217199,200782
1623,217243,200796
1653,217270,200797
1609,217263,200816
1600,217281,200800
1610,217267,200803
1625,217256,200791
1637,217225,200801
1600,217239,200783
1646,217247,200802
1681,217266,200816
1707,217296,200826
1658,217335,200843
1673,217402,200873
1705,217449,200904
1647,217523,200929
1616,217591,200970
1613,217673,200989
1620,217745,201024
1638,217815,201046
1625,217885,201081
1680,217959,201109
1671,218035,201143
1593,218091,201169
1595,218158,201211
1727,218226,201239
1936,218291,201272
2381,218351,201303
1602,218397,201323
983,218401,201341
1337,218457,201354
1718,218480,201385
1661,218545,201402
1682,218584,201429
1700,218638,201455
1671,218689,201479
1698,218742,201500
1729,218774,201517
1701,218813,201532
1744,218851,201552
1755,218932,201602
1776,219021,201612
1792,219088,201660
1831,219157,201668
1822,219179,201685
1843,219203,201685
1813,219180,201680
1893,219120,201634
1859,218971,201560
1842,218739,201456
1826,218469,201341
1735,218186,201193
1649,217934,201083
1566,217695,200997
1498,217512,200900
1476,217332,200842
1472,217261,200790
1493,217189,200782
1533,217171,200758
1583,217154,200765
1585,217187,200791
1614,217237,200804
1601,217289,200831
1619,217347,200856
1643,217383,200867
1633,217410,200870
1607,217420,200866
1631,217426,200859
1617,217451,200869
1591,217512,200884
1595,217543,200911
1587,217561,200913
1641,217571,200921
1623,217584,200908
1633,217564,200918
1591,217527,200891
1620,217469,200882
1650,217445,200845
1653,217406,200833
1587,217386,200828
1676,217387,200823
1667,217402,200817
1699,217432,200844
1648,217459,200850
1632,217509,200879
1595,217548,200892
1518,217618,200910
1474,217651,200940
1487,217702,200958
1479,217747,200993
1478,217808,201001
1478,217852,201029
1514,217908,201043
1482,217940,201057
1520,217979,201069
1706,218009,201089
2222,218037,201098
1775,218050,201090
969,218068,201108
1011,218089,201112
1346,218116,201136
1499,218138,201124
1513,218167,201145
1530,218187,201141
1535,218213,201174
1618,218249,201183
1617,218282,201207
1616,218325,201221
1637,218352,201242
1610,218396,201251
1622,218414,201265
1638,218447,201269
1635,218498,201279
1679,218537,201309
1743,218617,201337
1778,218686,201379
1776,218709,201378
1791,218655,201359
1759,218542,201296
1775,218316,201204
1632,218078,201084
1587,217821,200981
1476,217584,200867
1418,217379,200783
1389,217217,200711
1369,217097,200678
1392,217043,200653
1436,217010,200641
1440,217033,200667
1408,217093,200691
1454,217129,200720
1505,217188,200739
1482,217244,200780
1465,217300,200790
1503,217346,200825
1494,217393,200819
1517,217428,200855
1535,217507,200875
1570,217584,200918
1600,217662,200941
1565,217706,200972
1554,217734,200979
1553,217748,200998
1582,217735,200985
1562,217698,200983
1609,217661,200956
1606,217615,200929
1635,217572,200915
1699,217552,200897
1730,217539,200906
1715,217590,200927
1715,217626,200947
1715,217685,200959
1711,217727,200993
1634,217806,201014
1631,217873,201056
1648,217956,201087
1657,218027,201132
1653,218099,201172
1649,218156,201193
1659,218201,201205
1616,218243,201213
1633,218262,201243
1794,218307,201245
2089,218321,201253
2308,218350,201264
1247,218362,201258
1060,218359,201260
1402,218378,201272
1696,218386,201267
1719,218393,201288
1696,218407,201278
1686,218398,201265
1661,218400,201277
1665,218411,201271
1712,218416,201280
1746,218421,201274
1722,218430,201282
1757,218438,201286
1749,218463,201304
1770,218502,201312
1839,218520,201327
1838,218541,201339
1832,218541,201332
1843,218536,201319
1870,218457,201278
1857,218311,201218
1854,218110,201109
1776,217839,201014
1707,217594,200888
1611,217357,200787
1504,217147,200698
1444,216962,200628
1426,216813,200558
1424,216714,200512
1459,216655,200496
1395,216625,200498
1435,216640,200490
1483,216662,200505
1495,216703,200516
1518,216748,200535
1571,216777,200567
1602,216819,200570
1568,216832,200594
1569,216873,200598
1586,216889,200624
1525,216972,200658
1569,217022,200673
1566,217078,200694
1589,217095,200702
1569,217111,200697
1600,217129,200704
1593,217098,200689
1581,217085,200676
1570,217061,200675
1579,217026,200657
1586,216999,200648
1595,216996,200625
1653,216993,200655
1701,217031,200660
1727,217061,200685
1711,217120,200713
1662,217169,200739
1582,217246,200754
1564,217326,200801
1607,217386,200822
1559,217454,200850
1585,217521,200875
1662,217593,200903
1638,217654,200922
1664,217726,200959
1680,217760,200984
1767,217822,201001
2014,217856,201022
2411,217906,201046
1623,217956,201073
1056,218004,201077
1441,218029,201087
1710,218052,201099
1744,218084,201116
1728,218116,201140
1745,218165,201158
1745,218213,201189
1783,218277,201203
1784,218333,201240
1818,218408,201260
1776,218461,201302
1741,218530,201333
1823,218601,201370
1859,218713,201421
1843,218820,201470
1869,218905,201515
1873,218955,201540
1904,218983,201537
1910,218964,201507
1904,218826,201452
1882,218622,201352
1826,218341,201240
1779,218087,201119
1655,217843,201032
1580,217653,200938
1511,217486,200890
1455,217389,200845
1503,217311,200810
1472,217280,200806
1481,217274,200817
1511,217319,200842
1522,217405,200873
1555,217484,200924
1578,217573,200959
1571,217654,201003
1634,217731,201030
1598,217776,201057
1584,217832,201075
1623,217869,201096
1619,217932,201108
1639,218005,201147
1639,218081,201174
1648,218113,201183
1679,218138,201201
1685,218127,201207
1648,218117,201198
1626,218097,201199
1663,218086,201188
1663,218060,201177
1631,218054,201170
1664,218045,201148
1712,218057,201152
1732,218078,201159
1617,218106,201190
1492,218175,201206
1344,218222,201239
1162,218302,201285
1072,218394,201340
991,218478,201371
913,218539,201417
832,218616,201439
766,218691,201461
784,218745,201482
770,218805,201495
746,218852,201532
812,218907,201542
1213,218950,201576
1343,218994,201581
366,219012,201610
144,219037,201596
381,219030,201612
647,219042,201597
626,219052,201614
624,219058,201610
599,219076,201609
593,219073,201612
579,219071,201613
640,219080,201624
645,219092,201621
674,219107,201637
690,219138,201649
722,219166,201667
720,219228,201686
805,219278,201716
816,219352,201750
848,219417,201778
784,219466,201795
848,219476,201799
912,219382,201766
912,219202,201677
887,218965,201568
867,218691,201461
799,218436,201348
702,218211,201250
699,218022,201179
688,217891,201119
716,217807,201103
733,217794,201089
778,217793,201109
814,217810,201082
829,217859,201116
835,217908,201131
849,217977,201173
893,218032,201191
911,218066,201209
944,218097,201220
963,218140,201226
1057,218183,201265
1046,218285,201300
1053,218347,201353
1057,218406,201368
1084,218422,201382
1134,218419,201378
1142,218380,201365
1168,218336,201341
1175,218312,201343
1245,218286,201328
1284,218260,201298
1332,218234,201279
1350,218209,201274
1395,218193,201275
1424,218235,201297
1446,218283,201330
1390,218346,201346
1359,218413,201395
1358,218496,201417
1343,218536,201449
1360,218577,201449
1398,218602,201466
1427,218651,201487
1436,218691,201496
1425,218731,201532
1571,218794,201547
1905,218807,201564
2178,218847,201569
1404,218866,201599
1019,218898,201579
1290,218890,201599
1535,218904,201594
1553,218913,201599
1581,218939,201608
1618,218961,201638
1616,219000,201648
1624,219037,201660
1642,219071,201683
1618,219116,201694
1651,219139,201721
1682,219186,201720
1675,219219,201750
1706,219253,201762
1746,219281,201774
1733,219316,201776
1712,219330,201791
1745,219315,201777
1727,219282,201775
1760,219146,201699
1776,218939,201609
1769,218663,201472
1686,218374,201353
1597,218105,201233
1518,217886,201132
1485,217708,201083
1486,217592,201026
1490,217476,201009
1535,217458,200983
1600,217462,201000
1623,217485,201005
1648,217523,201033
1680,217579,201061
1690,217641,201088
1695,217693,201109
1705,217737,201128
1727,217768,201143
1699,217803,201151
1703,217827,201181
1707,217899,201207
1716,217969,201238
1685,218030,201260
1666,218067,201283
1654,218071,201280
1680,218060,201295
1680,218057,201269
1599,218029,201271
1602,218009,201256
1648,217977,201257
1650,217981,201251
1629,217995,201257
1699,218008,201274
1724,218054,201285
1729,218077,201320
1732,218164,201335
1739,218214,201387
1711,218298,201406
1648,218364,201447
1651,218431,201473
1594,218494,201494
1625,218563,201521
1674,218619,201556
1646,218671,201580
1619,218712,201595
1646,218752,201603
1744,218785,201601
1921,218793,201604
2352,218796,201596
1891,218787,201606
1130,218807,201593
1367,218823,201625
1733,218830,201635
1750,218857,201633
1766,218860,201637
1755,218869,201634
1750,218870,201635
1762,218878,201636
1783,218896,201632
1796,218914,201645
1840,218928,201648
1825,218955,201658
1835,219000,201662
1913,219037,201684
1895,219050,201703
1937,219072,201707
1930,219081,201719
1936,219073,201703
1964,219022,201686
1983,218900,201618
1932,218697,201520
1936,218418,201405
1891,218138,201257
1786,217869,201155
1717,217642,201040
1650,217434,200964
1596,217288,200907
1609,217172,200874
1615,217141,200860
1616,217134,200870
1583,217160,200886
1668,217203,200910
1648,217253,200926
1664,217304,200950
1651,217340,200963
1683,217372,200972
1678,217396,200991
1657,217424,201001
1649,217467,201038
1680,217552,201059
1680,217623,201111
1710,217710,201131
1681,217765,201170
1695,217821,201187
1712,217833,201203
1651,217852,201196
1657,217836,201202
1683,217844,201191
1744,217816,201199
1753,217840,201197
1750,217845,201205
1727,217866,201211
1697,217899,201231
1698,217943,201251
1717,217997,201277
1723,218041,201301
1728,218120,201338
1746,218214,201386
1784,218309,201424
1778,218377,201463
1751,218463,201483
1701,218528,201521
1671,218598,201550
1742,218657,201590
1714,218727,201612
1711,218772,201639
1722,218816,201636
1779,218856,201663
1755,218902,201698
1807,218921,201702
2003,218966,201720
2370,219002,201739
2314,219026,201762
1376,219061,201772
1408,219075,201797
1723,219107,201791
1875,219122,201805
1889,219146,201808
1885,219156,201818
1878,219206,201845
1931,219252,201859
1985,219286,201868
1971,219335,201904
1968,219372,201918
1963,219435,201936
1967,219501,201976
2034,219570,202016
2021,219646,202053
1995,219707,202064
2035,219749,202084
2069,219766,202069
2064,219750,202065
2029,219645,202002
2029,219418,201901
2062,219114,201749
1975,218784,201609
1905,218458,201476
1793,218190,201358
1734,217946,201260
1660,217778,201193
1664,217668,201155
1744,217623,201143
1744,217601,201143
1727,217618,201157
1751,217659,201176
1732,217715,201191
1777,217769,201225
1783,217812,201234
1809,217846,201258
1783,217874,201267
1790,217903,201280
1802,217953,201311
1776,218014,201337
1815,218086,201373
1741,218130,201377
1697,218154,201401
1696,218153,201384
1731,218123,201374
1740,218091,201346
1739,218033,201337
1707,217988,201303
1714,217945,201291
1643,217929,201269
1715,217907,201278
1726,217897,201271
1745,217904,201279
1680,217910,201276
1696,217944,201297
1774,217975,201323
1706,218036,201339
1635,218073,201361
1585,218115,201381
1567,218180,201407
1568,218231,201434
1519,218285,201459
1498,218358,201492
1530,218407,201514
1571,218434,201521
1505,218474,201540
1528,218482,201547
1761,218478,201531
2259,218492,201543
1779,218500,201535
1047,218507,201550
1175,218530,201557
1500,218539,201565
1614,218553,201569
1621,218550,201565
1591,218561,201575
1571,218587,201583
1609,218626,201604
1581,218657,201626
1599,218712,201661
1595,218768,201663
1616,218802,201703
1661,218883,201716
1684,218946,201754
1702,219000,201771
1707,219033,201804
1776,219096,201812
1743,219118,201834
1764,219120,201829
1808,219032,201783
1791,218852,201711
1729,218602,201588
1661,218326,201488
1601,218060,201370
1519,217810,201269
1449,217605,201192
1434,217441,201127
1405,217336,201075
1439,217258,201054
1467,217242,201044
1489,217238,201042
1523,217257,201056
1535,217286,201065
1567,217316,201075
1535,217335,201089
1570,217361,201095
1579,217359,201075
1615,217354,201101
1627,217398,201107
1631,217433,201136
1637,217507,201156
1589,217554,201185
1594,217601,201190
1598,217589,201194
1569,217595,201185
1530,217581,201181
1535,217551,201170
1525,217503,201145
1576,217469,201129
1555,217444,201119
1485,217428,201111
1526,217423,201114
1491,217426,201123
1498,217466,201125
1505,217503,201152
1535,217560,201170
1582,217635,201207
1535,217704,201225
1535,217780,201255
1521,217838,201290
1440,217881,201294
1427,217914,201311
1383,217955,201310
1390,217976,201335
1435,218025,201333
1398,218029,201350
1413,218050,201343
1392,218068,201363
1392,218086,201353
1344,218077,201361
1415,218086,201356
1568,218089,201363
1762,218097,201358
902,218118,201356
453,218110,201369
811,218142,201367
1008,218155,201390
944,218176,201385
963,218178,201403
893,218220,201405
882,218246,201417
943,218294,201444
883,218317,201448
848,218347,201469
833,218379,201482
843,218412,201512
871,218471,201510
925,218507,201545
928,218562,201552
912,218578,201579
963,218610,201568
1017,218600,201579
1023,218540,201544
1127,218404,201479
1183,218177,201381
1223,217904,201271
1227,217655,201164
1099,217427,201077
1104,217211,200990
1081,217041,200918
1109,216921,200895
1126,216880,200865
1166,216877,200884
1280,216911,200902
1313,216971,200941
1338,217064,200976
1446,217135,201024
1447,217231,201063
1479,217296,201105
1575,217366,201126
1633,217422,201148
1647,217495,201186
1629,217579,201248
1713,217703,201303
1683,217841,201363
1712,217937,201411
1758,218023,201448
1801,218079,201478
1826,218156,201497
1802,218194,201524
1791,218243,201542
1775,218261,201561
1831,218295,201578
1825,218344,201602
1830,218380,201627
1855,218447,201659
1820,218533,201685
1831,218607,201733
1878,218699,201774
1929,218810,201824
1907,218919,201878
1829,219059,201933
1887,219190,202002
1885,219331,202058
1860,219481,202141
1871,219641,202200
1798,219774,202269
1760,219906,202320
1817,220020,202385
1857,220136,202418
1894,220240,202482
1946,220343,202527
2030,220463,202584
2042,220564,202631
2227,220665,202668
2509,220757,202727
3066,220853,202766
2410,220907,202805
1904,220996,202827
2119,221049,202863
2477,221124,202885
2583,221181,202919
2783,221237,202945
2974,221320,202970
3147,221396,203009
3253,221485,203048
3506,221600,203094
3635,221698,203133
3725,221807,203187
3958,221892,203211
4032,221992,203267
4095,222085,203298
4095,222175,203337
4095,222260,203365
4095,222331,203385
4095,222398,203423
4095,222414,203426
4095,222335,203388
4095,222122,203277
4095,221768,203150
4095,221368,202969
4095,220923,202791
4095,220560,202633
4095,220255,202517
3995,220065,202444
3908,219984,202421
4010,220001,202441
4004,220096,202491
3957,220208,202537
3911,220321,202580
3984,220472,202647
3906,220624,202700
3871,220747,202760
3898,220849,202801
3731,220927,202840
3682,221000,202863
3642,221062,202899
3693,221130,202934
3552,221221,202952
3499,221269,202992
3406,221316,202992
3344,221317,203012
3319,221302,202998
3298,221270,202982
3249,221209,202944
3184,221114,202913
3105,221062,202887
3071,220982,202862
3040,220943,202843
3023,220923,202853
3069,220936,202855
2950,220981,202891
2905,221050,202921
2923,221128,202965
2853,221202,202992
2787,221297,203039
2710,221388,203089
2619,221469,203110
2550,221552,203155
2544,221653,203183
2559,221709,203225
2507,221771,203230
2434,221777,203243
2391,221864,203286
2405,221917,203312
2556,221958,203330
3005,221993,203344
2969,222019,203355
1895,222029,203363
1840,222042,203384
2117,222072,203378
2287,222084,203413
2268,222125,203414
2242,222130,203432
2187,222164,203428
2165,222181,203444
2165,222197,203435
2121,222215,203447
2137,222244,203447
2098,222267,203461
2078,222314,203476
2080,222365,203492
2107,222399,203514
2097,222439,203521
2121,222483,203545
2151,222533,203546
2157,222538,203562
2133,222514,203537
2117,222354,203471
2155,222095,203348
2036,221724,203194
1953,221329,203032
1866,220940,202863
1780,220610,202737
1699,220356,202625
1641,220160,202566
1642,220093,202535
1669,220074,202549
1683,220133,202559
1653,220199,202612
1690,220310,202644
1690,220412,202686
1695,220516,202732
1675,220597,202770
1690,220652,202789
1731,220692,202806
1706,220741,202836
1665,220824,202857
1669,220929,202925
1649,221051,202963
1679,221148,203017
1648,221228,203034
1634,221228,203040
1616,221210,203018
1637,221184,203009
1649,221143,202994
1651,221096,202978
1649,221069,202979
1616,221071,202966
1662,221067,202980
1679,221095,202988
1655,221122,203011
1701,221189,203028
1728,221245,203055
1750,221336,203089
1700,221431,203131
1751,221511,203170
1725,221593,203213
1684,221671,203234
1677,221740,203261
1638,221798,203290
1694,221852,203300
1675,221888,203319
1679,221937,203330
1677,221968,203351
1685,222020,203373
1650,222046,203382
1674,222077,203389
1797,222101,203402
2129,222124,203410
2419,222135,203413
1456,222145,203420
1070,222146,203432
1451,222174,203445
1743,222206,203446
1697,222232,203471
1707,222278,203477
1667,222285,203488
1680,222300,203489
1717,222316,203498
1718,222347,203499
1722,222350,203494
1730,222384,203516
1757,222421,203529
1790,222455,203534
1775,222512,203550
1839,222555,203572
1814,222599,203584
1807,222603,203596
1826,222597,203567
1841,222510,203526
1857,222322,203426
1821,222001,203302
1771,221607,203120
1717,221188,202950
1535,220801,202788
1478,220453,202646
1417,220193,202566
1379,220059,202503
1374,219990,202495
1373,220009,202500
1443,220073,202546
1462,220215,202609
1475,220358,202685
1515,220511,202754
1557,220668,202825
1569,220804,202878
1587,220913,202927
1600,221008,202966
1531,221079,202998
1600,221167,203045
1623,221263,203079
1601,221364,203132
1561,221448,203156
1585,221479,203182
1595,221514,203185
1579,221527,203203
1627,221517,203185
1617,221495,203196
1595,221488,203180
1591,221473,203179
1662,221447,203175
1680,221438,203166
1686,221435,203162
1687,221458,203159
1683,221463,203165
1759,221506,203176
1728,221561,203226
1686,221666,203257
1718,221769,203310
1754,221861,203332
1665,221937,203372
1647,222034,203401
1675,222094,203426
1674,222146,203435
1669,222200,203460
1667,222261,203498
1669,222312,203513
1730,222350,203543
1685,222402,203554
1808,222435,203580
2073,222479,203573
2599,222481,203586
1919,222516,203591
1156,222518,203595
1360,222543,203590
1690,222546,203596
1726,222537,203599
1776,222538,203598
1806,222568,203601
1775,222598,203609
1854,222629,203624
1905,222655,203627
1937,222686,203650
2003,222729,203658
2053,222760,203686
2149,222819,203691
2143,222858,203700
2215,222886,203712
2270,222939,203723
2310,222985,203757
2359,223020,203768
2417,223037,203775
2409,222952,203743
2384,222738,203648
2416,222426,203501
2320,222035,203336
2267,221652,203166
2160,221292,203043
2112,221031,202941
2043,220859,202889
2062,220760,202856
2043,220773,202875
2061,220861,202918
2060,220990,202995
2064,221152,203075
2127,221311,203142
2161,221484,203208
2194,221620,203266
2117,221729,203314
2145,221821,203351
2139,221893,203391
2193,221971,203429
2226,222049,203488
2293,222175,203536
2304,222283,203594
2341,222390,203642
2348,222452,203677
2343,222486,203693
2381,222516,203710
2407,222507,203708
2423,222487,203694
2418,222444,203677
2484,222409,203646
2490,222386,203647
2601,222400,203639
2559,222424,203663
2551,222472,203680
2559,222522,203701
2585,222595,203728
2608,222666,203753
2554,222730,203785
2480,222810,203813
2512,222874,203841
2545,222933,203859
2543,223005,203899
2551,223075,203917
2507,223109,203941
2523,223147,203936
2526,223149,203950
2521,223184,203954
2721,223204,203965
3331,223237,203959
2865,223255,203984
1872,223276,203992
1968,223289,203990
2384,223301,203998
2498,223306,204002
2475,223297,204012
2397,223316,203998
2413,223316,204013
2400,223347,204005
2367,223347,204029
2389,223375,204020
2359,223412,204039
2320,223446,204056
2352,223500,204087
2343,223551,204115
2374,223595,204129
2393,223608,204135
2341,223595,204118
2361,223588,204104
2359,223545,204068
2349,223388,204003
2288,223125,203861
2267,222731,203696
2213,222302,203512
2098,221828,203312
1936,221391,203136
1750,221041,203007
1713,220773,202906
1645,220635,202863
1642,220629,202887
1665,220729,202925
1662,220907,203015
1654,221111,203092
1662,221303,203183
1631,221500,203255
1682,221665,203333
1720,221819,203397
1727,221962,203458
1757,222048,203488
1794,222132,203518
1731,222199,203554
1725,222275,203577
1777,222327,203603
1760,222389,203629
1753,222419,203645
1786,222408,203632
1778,222348,203630
1743,222284,203601
1751,222200,203573
1767,222100,203521
1782,222011,203491
1791,221934,203446
1775,221861,203423
1825,221820,203410
1838,221808,203388
1808,221788,203397
1793,221815,203389
1810,221830,203413
1786,221863,203415
1751,221896,203434
1670,221956,203442
1655,222022,203481
1671,222090,203496
1663,222143,203542
1678,222206,203537
1638,222231,203558
1675,222258,203556
1637,222288,203563
1680,222311,203577
1806,222339,203568
2211,222354,203601
2394,222389,203592
1232,222389,203622
1104,222396,203603
1587,222379,203619
1782,222391,203604
1763,222398,203607
1761,222412,203610
1790,222402,203603
1817,222414,203597
1808,222438,203603
1839,222442,203589
1808,222441,203590
1827,222471,203598
1831,222498,203600
1833,222505,203616
1893,222580,203641
1945,222624,203676
1895,222637,203658
1941,222652,203681
1918,222696,203683
1963,222649,203670
1917,222424,203530
1886,222045,203356
1804,221594,203148
1687,221104,202941
1585,220704,202770
1481,220367,202636
1365,220125,202549
1386,219978,202492
1362,219900,202469
1394,219885,202466
1349,219909,202491
1374,219965,202521
1383,220043,202554
1416,220169,202598
1456,220278,202658
1475,220395,202705
1450,220510,202765
1483,220619,202797
1489,220713,202841
1488,220816,202883
1506,220927,202923
1511,221045,202976
1456,221128,203005
1505,221176,203036
1497,221188,203031
1535,221135,203015
1519,221074,202990
1535,220967,202945
1534,220853,202900
1461,220764,202856
1527,220713,202832
1595,220689,202827
1630,220664,202806
1587,220675,202800
1590,220700,202830
1590,220761,202844
1558,220816,202871
1518,220874,202899
1519,220920,202918
1497,220975,202925
1520,221018,202947
1495,221063,202963
1473,221091,202981
1490,221140,202993
1431,221164,203001
1441,221194,203012
1517,221228,203024
1901,221236,203030
1975,221228,202998
781,221197,202987
495,221170,202955
816,221097,202932
945,221043,202892
853,220972,202859
768,220947,202826
711,220932,202828
696,220940,202823
595,220953,202825
640,220968,202831
546,220988,202830
482,221010,202857
477,221043,202882
481,221116,202925
479,221205,202962
479,221282,203003
471,221357,203023
506,221394,203053
537,221444,203070
511,221411,203043
533,221254,202966
592,220977,202824
571,220606,202669
485,220230,202502
431,219863,202354
375,219574,202240
341,219349,202156
379,219170,202082
411,219037,202035
484,218971,202011
489,218972,202000
595,218989,202006
651,219020,202029
661,219064,202051
727,219108,202058
723,219123,202069
813,219154,202088
848,219161,202101
830,219173,202100
880,219195,202132
863,219255,202155
894,219296,202172
874,219315,202167
880,219316,202170
955,219287,202151
940,219249,202130
934,219202,202100
970,219154,202055
989,219091,202029
1103,219032,201989
1126,218973,201962
1103,218942,201931
1168,218912,201942
1166,218912,201932
1155,218917,201958
1117,218965,201978
1092,219028,202023
1115,219101,202050
1152,219174,202094
1169,219235,202115
1200,219311,202144
1201,219381,202187
1201,219463,202219
1252,219556,202271
1424,219680,202306
1696,219770,202370
2138,219877,202394
1188,219937,202436
791,220021,202451
1171,220076,202475
1531,220099,202487
1535,220121,202506
1535,220139,202505
1535,220198,202541
1594,220224,202563
1632,220271,202574
1653,220271,202579
1665,220264,202560
1682,220235,202553
1713,220222,202536
1743,220191,202519
1735,220177,202515
1759,220181,202518
1775,220139,202485
1795,220100,202470
1798,220034,202429
1831,219921,202374
1809,219709,202260
1783,219425,202126
1807,219108,202006
1753,218809,201869
1573,218483,201742
1481,218206,201635
1441,217971,201529
1414,217810,201463
1397,217678,201419
1415,217606,201396
1413,217563,201391
1409,217576,201386
1499,217590,201394
1520,217618,201404
1517,217649,201408
1498,217658,201407
1516,217687,201413
1561,217699,201423
1520,217706,201420
1535,217745,201449
1516,217792,201438
1451,217854,201481
1403,217890,201480
1391,217900,201488
1403,217889,201478
1347,217856,201456
1339,217811,201424
1333,217735,201408
1355,217663,201365
1328,217615,201341
1296,217568,201323
1296,217565,201320
1395,217552,201320
1469,217582,201320
1455,217620,201351
1511,217679,201355
1513,217741,201387
1469,217810,201419
1442,217894,201452
1433,217993,201515
1409,218094,201559
1444,218191,201616
1445,218288,201649
1514,218349,201689
1504,218431,201700
1499,218502,201730
1535,218566,201758
1667,218611,201770
1872,218692,201804
2386,218740,201824
1648,218807,201852
931,218863,201875
1294,218905,201884
1621,218928,201902
1653,218965,201902
1675,219002,201923
1675,219037,201946
1696,219069,201958
1711,219113,201982
1710,219178,202017
1744,219231,202043
1749,219297,202076
1769,219357,202091
1775,219417,202125
1786,219477,202154
1792,219541,202180
1798,219593,202204
1856,219644,202216
1853,219656,202220
1904,219605,202198
1891,219434,202103
1897,219121,201963
1856,218765,201796
1792,218407,201654
1687,218052,201500
1611,217762,201395
1495,217559,201308
1472,217378,201240
1449,217285,201215
1480,217239,201214
1504,217243,201208
1535,217274,201226
1535,217324,201247
1535,217396,201280
1603,217462,201311
1632,217524,201335
1635,217574,201359
1648,217621,201377
1641,217649,201413
1698,217727,201443
1679,217810,201482
1628,217950,201537
1590,218034,201592
1558,218121,201621
1535,218156,201632
1507,218166,201637
1474,218157,201644
1503,218157,201639
1453,218152,201650
1470,218151,201653
1470,218146,201649
1503,218147,201654
1502,218179,201673
1483,218225,201684
1535,218291,201709
1531,218361,201748
1558,218458,201783
1535,218546,201831
1490,218617,201846
1509,218673,201886
1581,218739,201904
1610,218798,201921
1639,218851,201937
1587,218882,201960
1649,218893,201947
1648,218899,201948
1769,218901,201923
1943,218873,201914
2450,218870,201915
