1391,0,0
1911,82732,82721
1612,148234,148236
2069,204935,198116
1806,212490,201011
2235,212587,201056
2334,212682,201089
3141,212770,201131
2227,212859,201168
2242,212950,201202
1959,212972,201222
2337,212952,201251
2032,212980,201245
2441,213015,201254
1985,213049,201257
2448,213099,201278
2150,213137,201303
2535,213191,201317
2135,213236,201344
2581,213296,201358
2246,213360,201386
2638,213438,201416
2266,213507,201446
2689,213575,201463
2303,213573,201463
2712,213507,201420
2346,213270,201292
2642,212773,201057
2327,212069,200709
2615,211252,200322
2173,210445,199955
2486,209736,199632
1933,209189,199391
2239,208782,199226
1737,208579,199140
2080,208509,199133
1652,208542,199164
2128,208624,199210
1771,208746,199285
2031,208922,199360
1811,209138,199467
2129,209398,199578
1776,209643,199705
2173,209884,199815
1808,210098,199910
2182,210292,200004
1836,210474,200095
2125,210637,200173
1904,210809,200248
2182,210963,200320
1840,211114,200374
2227,211250,200443
1871,211356,200478
2167,211427,200512
1936,211469,200523
2145,211475,200532
1894,211463,200540
2181,211443,200532
1923,211425,200524
2177,211380,200509
1950,211346,200486
2212,211320,200471
2001,211325,200474
2267,211370,200492
2039,211445,200537
2224,211530,200565
1936,211610,200615
2112,211670,200633
1916,211764,200694
2084,211860,200725
1917,211957,200760
2131,212031,200796
1968,212108,200836
2128,212184,200865
2178,212290,200891
2833,212390,200951
2534,212526,201005
1993,212662,201071
1911,212790,201133
2032,212905,201175
1941,212969,201211
1989,213028,201240
1938,213089,201266
1979,213162,201291
2044,213254,201325
2110,213303,201343
2010,213320,201342
2112,213330,201341
2002,213363,201354
2118,213419,201381
2112,213486,201413
2071,213555,201453
2087,213616,201470
2149,213600,201448
2131,213460,201384
2141,213089,201194
2201,212452,200886
2135,211651,200501
2183,210816,200124
2077,210068,199774
1986,209445,199485
1904,208967,199283
1911,208663,199155
1776,208512,199104
1809,208460,199101
1744,208493,199136
1786,208580,199203
1663,208703,199237
1829,208868,199327
1706,209049,199410
1823,209255,199509
1776,209469,199608
1812,209714,199719
1616,209910,199804
1913,210105,199899
1727,210294,199990
1895,210504,200083
1690,210729,200195
1893,210950,200282
1649,211086,200353
1877,211169,200375
1663,211189,200397
1942,211211,200407
1618,211217,200420
1905,211208,200409
1653,211139,200377
1883,211079,200337
1625,211030,200319
1962,211030,200334
1690,211076,200359
1910,211130,200394
1690,211146,200389
1978,211172,200418
1613,211225,200427
1813,211288,200461
1523,211391,200490
1763,211522,200553
1471,211685,200619
1863,211850,200699
1451,211985,200768
1842,212086,200817
1567,212183,200847
2318,212284,200886
2235,212406,200950
1953,212526,200995
1337,212664,201079
1813,212836,201169
1383,212999,201235
1733,213132,201297
1371,213209,201321
1662,213281,201346
1353,213306,201357
1755,213350,201363
1425,213375,201378
1773,213422,201387
1337,213479,201413
1767,213551,201442
1407,213609,201475
1767,213662,201492
1402,213686,201497
1937,213721,201505
1498,213679,201491
1907,213548,201412
1520,213185,201232
1893,212599,200952
1510,211849,200595
1863,211050,200213
1456,210352,199890
1807,209802,199666
1273,209440,199513
1618,209246,199444
1179,209188,199422
1515,209234,199496
1211,209414,199588
1535,209629,199696
1147,209874,199811
1535,210120,199941
1152,210372,200056
1535,210599,200164
1248,210815,200258
1661,211030,200358
1249,211236,200458
1596,211476,200554
1278,211680,200644
1642,211884,200745
1223,212087,200830
1658,212301,200926
1309,212464,201001
1635,212595,201067
1317,212671,201119
1733,212708,201133
1279,212684,201117
1708,212620,201097
1383,212529,201046
1741,212436,201004
1376,212379,200965
1727,212318,200940
1405,212253,200897
1702,212210,200887
1339,212229,200890
1744,212301,200917
1523,212389,200954
1778,212449,200988
1519,212520,201032
1821,212631,201076
1486,212716,201116
1714,212816,201143
1373,212909,201202
1728,213016,201238
1391,213103,201279
1712,213181,201311
1471,213260,201341
1666,213345,201385
1535,213453,201434
1931,213559,201475
2289,213648,201514
2470,213717,201545
1535,213762,201558
1715,213807,201576
1535,213870,201595
1585,213947,201636
1517,214025,201658
1699,214076,201690
1506,214107,201699
1763,214139,201703
1598,214201,201735
1744,214282,201767
1623,214369,201804
1872,214456,201839
1717,214539,201869
1779,214599,201896
1819,214634,201909
1904,214653,201898
1907,214631,201873
2032,214522,201809
1938,214267,201672
1956,213767,201431
1937,213069,201117
2078,212245,200734
1906,211432,200347
1856,210784,200057
1824,210331,199874
1758,210075,199775
1598,209999,199755
1616,209993,199766
1621,210064,199808
1600,210139,199859
1573,210326,199943
1681,210544,200045
1695,210783,200151
1673,211047,200277
1731,211318,200397
1653,211609,200523
1783,211888,200658
1715,212114,200738
1793,212325,200821
1698,212550,200917
1770,212814,201030
1621,213063,201129
1762,213282,201218
1689,213417,201279
1801,213537,201316
1713,213596,201340
1780,213613,201332
1667,213585,201326
1872,213567,201307
1664,213522,201297
1758,213488,201267
1635,213461,201257
1839,213447,201258
1600,213440,201263
1791,213431,201265
1615,213449,201274
1890,213489,201292
1725,213534,201310
1927,213567,201330
1738,213605,201327
1975,213611,201318
1677,213644,201317
1862,213667,201323
1562,213696,201324
1791,213748,201336
1603,213795,201358
1824,213854,201370
1491,213913,201392
1837,213969,201414
1617,214065,201473
2231,214185,201509
2261,214308,201583
2150,214432,201629
1312,214530,201679
1799,214661,201719
1486,214817,201805
1745,214942,201835
1481,215079,201882
1829,215255,201962
1472,215389,202038
1837,215473,202067
1497,215503,202072
1857,215524,202070
1535,215543,202070
1920,215574,202074
1525,215613,202082
1899,215636,202096
1627,215650,202095
1969,215684,202107
1641,215709,202133
1992,215681,202108
1681,215499,202028
2056,215090,201837
1725,214441,201554
2000,213693,201209
1588,212958,200900
1913,212357,200600
1466,211890,200402
1791,211619,200283
1423,211521,200245
1833,211518,200243
1402,211573,200270
1903,211702,200333
1502,211903,200437
1898,212154,200557
1535,212432,200676
1913,212683,200804
1535,212899,200884
2007,213087,200983
1588,213281,201071
1998,213477,201151
1634,213641,201243
2034,213802,201299
1598,213944,201378
1959,214067,201412
1605,214159,201451
1984,214209,201470
1673,214221,201481
1991,214234,201494
1520,214247,201490
2042,214192,201479
1579,214152,201450
1979,214062,201430
1584,213998,201399
2101,213937,201383
1680,213922,201376
2061,213895,201383
1763,213893,201374
2058,213909,201388
1757,213936,201402
2037,213977,201407
1595,214009,201437
2037,214082,201460
1607,214156,201502
1955,214234,201551
1590,214356,201604
2064,214486,201670
1697,214582,201720
2353,214652,201730
2511,214706,201750
2390,214751,201758
1516,214801,201783
1883,214854,201799
1669,214933,201821
1809,215008,201843
1655,215091,201887
1925,215160,201902
1646,215201,201920
1895,215221,201917
1648,215273,201936
1899,215315,201965
1697,215356,201966
2032,215375,201977
1711,215411,201981
2042,215441,201992
1774,215495,202024
2058,215567,202067
1853,215639,202096
2111,215626,202103
1882,215448,202008
2127,215020,201798
1877,214366,201503
1985,213602,201145
1838,212853,200810
1872,212262,200530
1654,211820,200361
1712,211556,200251
1520,211423,200208
1654,211417,200220
1535,211502,200284
1616,211679,200369
1535,211927,200490
1731,212203,200628
1666,212484,200764
1773,212783,200921
1677,213095,201062
1810,213344,201176
1697,213557,201260
1791,213720,201346
1810,213888,201421
1813,214056,201490
1791,214210,201555
1788,214364,201631
1851,214520,201695
1851,214623,201739
1830,214672,201762
1821,214701,201769
1847,214678,201763
1807,214652,201735
1846,214595,201718
1830,214517,201667
1862,214456,201652
1803,214398,201623
1921,214371,201611
1862,214342,201596
1966,214351,201604
1851,214366,201620
1842,214438,201649
1855,214513,201691
1865,214576,201715
1692,214607,201724
1842,214676,201740
1741,214720,201773
1962,214791,201797
1750,214864,201822
1931,214934,201873
2096,215014,201881
2661,215068,201908
2352,215121,201900
1845,215157,201929
1742,215227,201956
1867,215282,201984
1680,215332,202005
1871,215391,202027
1709,215419,202053
1916,215475,202058
1706,215516,202079
1971,215553,202093
1707,215585,202106
1966,215638,202127
1745,215691,202145
2070,215757,202187
1762,215813,202203
2067,215855,202234
1782,215879,202235
2079,215863,202224
1764,215791,202169
2077,215572,202076
1791,215125,201849
2101,214454,201544
1722,213654,201184
2025,212821,200804
1606,212097,200482
1851,211584,200249
1424,211243,200105
1766,211034,200037
1426,210972,200007
1744,211002,200035
1383,211106,200100
1765,211327,200197
1469,211592,200338
1734,211885,200464
1444,212145,200590
1853,212366,200678
1465,212549,200760
1904,212743,200833
1503,212923,200919
1932,213110,201003
1525,213283,201074
1930,213460,201146
1553,213590,201210
2017,213712,201250
1631,213801,201272
2034,213842,201283
1613,213848,201261
2115,213822,201254
1604,213790,201231
1959,213760,201229
1603,213743,201224
2005,213709,201213
1694,213673,201192
2057,213632,201174
1731,213562,201165
2154,213551,201155
1681,213589,201179
2021,213655,201218
1606,213742,201253
1991,213831,201304
1608,213942,201339
2054,214032,201385
1631,214127,201405
2067,214216,201448
1664,214325,201491
2413,214447,201542
2487,214554,201580
2432,214628,201601
1586,214662,201604
1965,214680,201591
1665,214716,201601
1979,214747,201616
1600,214798,201628
1954,214842,201625
1674,214877,201629
2007,214912,201626
1675,214924,201627
2057,214932,201616
1779,214977,201619
2128,215039,201642
1767,215133,201689
2166,215244,201733
1824,215323,201759
2154,215371,201780
1895,215403,201780
2243,215373,201770
1936,215244,201700
2240,214937,201568
1978,214421,201329
2239,213747,201038
1876,213073,200725
2094,212442,200445
1675,211945,200221
1930,211627,200088
1602,211530,200079
1877,211639,200150
1642,211843,200268
1904,212101,200377
1677,212309,200482
1919,212496,200558
1751,212678,200625
1866,212866,200711
1739,213096,200817
1990,213336,200925
1671,213562,201027
1941,213737,201114
1753,213882,201169
1899,214007,201224
1744,214141,201279
1931,214276,201346
1714,214437,201398
1909,214547,201455
1738,214635,201475
1836,214673,201501
1677,214652,201471
1802,214604,201448
1719,214530,201406
1881,214434,201361
1787,214360,201336
1878,214332,201329
1775,214333,201343
1811,214359,201344
1675,214393,201358
1683,214428,201375
1709,214452,201392
1773,214513,201414
1771,214613,201467
1760,214731,201520
1731,214822,201552
1922,214866,201566
2385,214895,201562
2378,214917,201576
1921,214966,201595
1698,215012,201619
1773,215092,201642
1718,215172,201687
1773,215240,201699
1687,215280,201715
1761,215365,201745
1798,215451,201798
1893,215525,201827
1776,215599,201870
1918,215650,201902
1824,215720,201912
1921,215770,201951
1844,215813,201958
1953,215859,201973
1802,215895,201981
2031,215914,201988
1840,215898,201983
2113,215813,201937
1917,215551,201808
1985,215069,201588
1869,214412,201303
1999,213703,200973
1685,213005,200674
1845,212445,200407
1553,212060,200240
1716,211835,200150
1571,211760,200144
1717,211830,200189
1419,211942,200242
1622,212112,200326
1072,212300,200403
1153,212524,200513
779,212774,200625
766,213029,200737
422,213232,200835
701,213413,200907
336,213552,200963
627,213677,201020
430,213807,201085
749,213965,201133
471,214104,201209
854,214272,201260
582,214391,201304
905,214475,201335
619,214520,201349
953,214536,201371
613,214509,201350
1007,214441,201324
624,214365,201284
1051,214303,201266
668,214249,201247
1157,214224,201234
864,214194,201222
1168,214156,201206
770,214146,201204
1183,214175,201217
848,214244,201259
1213,214358,201313
805,214475,201364
1200,214577,201397
894,214635,201428
1274,214703,201443
1168,214755,201469
2047,214804,201481
1398,214882,201517
1193,214955,201555
833,215024,201578
1263,215085,201602
843,215136,201613
1235,215175,201627
865,215248,201660
1343,215338,201696
961,215424,201733
1369,215480,201760
1055,215545,201785
1513,215602,201820
1061,215674,201854
1594,215733,201877
1268,215789,201909
1677,215824,201919
1248,215835,201908
1726,215827,201889
1315,215737,201834
1792,215468,201712
1365,214977,201470
1823,214259,201155
1430,213453,200810
1701,212717,200466
1070,212084,200191
1426,211631,199989
981,211356,199891
1392,211209,199818
962,211155,199804
1486,211218,199836
1200,211362,199914
1563,211560,200032
1254,211801,200121
1669,212070,200252
1269,212325,200368
1760,212539,200456
1420,212739,200553
1762,212938,200641
1421,213107,200726
1842,213281,200777
1511,213437,200867
1809,213621,200931
1568,213794,201028
1856,213937,201084
1598,214063,201133
1871,214111,201168
1633,214122,201150
1923,214130,201160
1677,214111,201140
1962,214044,201114
1744,213987,201091
2083,213910,201052
1771,213865,201032
2082,213817,201016
1856,213796,200986
1935,213768,200974
1811,213769,200989
2003,213788,200965
1745,213803,200975
1971,213854,201001
1761,213944,201046
1985,214045,201097
1790,214148,201138
1936,214256,201196
1935,214354,201251
2671,214456,201273
2441,214566,201327
1871,214647,201358
1739,214718,201383
1973,214776,201387
1766,214824,201410
1875,214871,201439
1834,214945,201453
1878,215026,201497
1840,215104,201532
1895,215156,201556
1874,215205,201578
1965,215263,201590
1916,215346,201636
2036,215438,201689
1988,215514,201736
1998,215576,201753
2059,215615,201769
2127,215639,201770
2131,215592,201753
2122,215411,201646
2173,214974,201444
2199,214322,201151
2192,213552,200808
2128,212772,200453
2095,212124,200154
1979,211615,199937
1936,211316,199814
1789,211164,199758
1833,211141,199754
1797,211192,199795
1890,211321,199864
1760,211501,199950
1815,211763,200075
1743,212061,200221
1865,212363,200354
1819,212606,200469
1875,212822,200567
1744,212996,200636
1842,213138,200696
1711,213241,200724
1865,213349,200766
1726,213453,200781
1898,213538,200812
1631,213610,200813
1813,213668,200835
1665,213713,200853
1870,213780,200891
1696,213796,200904
1898,213805,200915
1778,213759,200896
1955,213715,200868
1764,213656,200850
1949,213612,200835
1754,213567,200828
1920,213527,200815
1649,213505,200799
1874,213513,200810
1634,213529,200815
1994,213562,200823
1669,213597,200834
2019,213632,200849
1803,213667,200842
2170,213713,200862
2339,213774,200881
2733,213854,200908
1879,213929,200931
1914,213992,200960
1741,214055,200988
2043,214120,201014
1650,214180,201046
2032,214257,201081
1689,214335,201118
2053,214423,201161
1682,214508,201207
2044,214606,201241
1739,214704,201291
2165,214783,201332
1759,214841,201360
2096,214881,201366
1808,214891,201357
2192,214911,201352
1811,214903,201330
2192,214866,201311
1843,214739,201220
2209,214374,201038
1861,213792,200745
2269,213034,200420
1744,212292,200072
2167,211658,199773
1627,211172,199571
1975,210852,199422
1530,210674,199360
1898,210627,199334
1535,210659,199366
1923,210799,199434
1595,211018,199539
1983,211297,199660
1535,211534,199772
1965,211760,199875
1505,211917,199950
1968,212095,200019
1578,212331,200135
2011,212645,200290
1563,213053,200493
1957,213475,200703
1513,213840,200878
1936,214066,200976
1515,214164,201003
1982,214178,200997
1531,214168,200989
1953,214194,201000
1535,214259,201036
2064,214307,201048
1649,214288,201035
2100,214202,200992
1760,214054,200909
2031,213898,200818
1578,213768,200743
2031,213692,200700
1572,213678,200701
2019,213748,200725
1639,213800,200761
1985,213910,200795
1572,214004,200849
1975,214071,200865
1691,214087,200873
2533,214102,200872
2261,214116,200879
1922,214198,200925
1381,214324,200975
1849,214489,201057
1514,214610,201105
1791,214690,201161
1554,214740,201167
1866,214779,201185
1535,214787,201181
1821,214770,201183
1570,214762,201159
1862,214774,201165
1578,214822,201176
1847,214903,201221
1568,214959,201223
1810,214982,201221
1622,214960,201200
1799,214907,201172
1600,214808,201121
1875,214582,200992
1741,214194,200839
1846,213643,200589
1671,212972,200288
1850,212305,199993
1616,211736,199730
1616,211296,199542
1399,210981,199411
1535,210807,199354
1453,210774,199359
1511,210834,199389
1473,210951,199455
1591,211099,199537
1509,211263,199597
1655,211437,199674
1573,211615,199748
1718,211805,199847
1718,211973,199916
1762,212122,199989
1687,212266,200054
1733,212426,200136
1729,212601,200225
1633,212836,200332
1632,213037,200433
1671,213207,200495
1679,213298,200539
1687,213327,200553
1651,213342,200565
1680,213328,200552
1705,213290,200539
1744,213224,200492
1834,213134,200452
1776,213078,200421
1725,213066,200410
1730,213069,200432
1728,213120,200452
1614,213146,200487
1753,213209,200514
1713,213256,200548
1746,213294,200559
1690,213338,200573
1905,213393,200593
1994,213446,200602
2470,213498,200621
2091,213536,200637
1616,213608,200661
1626,213684,200690
1847,213760,200726
1584,213840,200737
1798,213887,200766
1662,213926,200763
1882,213956,200761
1601,213967,200737
1916,214007,200756
1744,214061,200768
2002,214120,200793
1847,214191,200836
2144,214273,200866
1856,214350,200916
2214,214404,200939
2013,214459,200957
2337,214470,200938
2194,214348,200906
2494,214044,200727
2266,213471,200471
2527,212731,200137
2230,211963,199767
2587,211279,199453
2198,210747,199213
2499,210389,199067
2082,210183,198977
2399,210078,198947
2086,210109,198988
2343,210229,199064
2133,210387,199145
2504,210576,199238
2105,210772,199342
2474,210986,199433
2087,211181,199527
2445,211403,199622
2064,211581,199714
2430,211738,199768
2076,211885,199848
2397,212074,199934
2064,212263,200024
2383,212467,200110
2046,212645,200197
2342,212813,200262
1973,212904,200311
2375,212934,200331
2021,212910,200304
2465,212832,200275
1962,212763,200248
2352,212710,200215
1953,212638,200187
2233,212581,200166
1866,212572,200160
2330,212566,200165
1888,212589,200167
2269,212585,200171
1905,212566,200157
2257,212572,200152
1946,212603,200158
2815,212670,200201
2538,212773,200250
2407,212891,200309
1683,212994,200366
2171,213094,200398
1722,213168,200426
2175,213248,200458
1680,213344,200512
2241,213466,200564
1831,213591,200625
2210,213721,200677
1774,213795,200718
2263,213867,200747
1829,213924,200756
2174,213992,200786
1906,214063,200819
2327,214132,200852
1921,214190,200872
2323,214226,200869
1988,214209,200855
2354,214048,200776
1951,213667,200575
2288,213059,200292
1973,212355,199962
2309,211612,199622
1871,210968,199324
2151,210502,199105
1760,210173,198984
2031,209985,198901
1645,209936,198896
1947,210002,198939
1669,210121,199001
1987,210251,199078
1630,210386,199120
2009,210520,199195
1682,210642,199235
2027,210804,199311
1744,210995,199390
1967,211191,199490
1749,211371,199569
1994,211526,199643
1695,211665,199702
1923,211794,199766
1749,211950,199825
1950,212096,199884
1731,212207,199939
1983,212271,199952
1805,212286,199946
2001,212293,199934
1783,212286,199920
1965,212267,199905
1760,212235,199909
1930,212208,199888
1680,212159,199880
1866,212120,199860
1707,212107,199868
1875,212141,199889
1748,212212,199935
1901,212312,199984
1857,212409,200040
2394,212530,200104
2544,212627,200153
2125,212748,200227
1622,212911,200310
1803,213044,200374
1649,213148,200410
1734,213195,200428
1645,213222,200423
1687,213277,200461
1643,213390,200495
1744,213529,200572
1717,213651,200623
1728,213753,200645
1712,213815,200685
1757,213885,200696
1738,213984,200751
1767,214098,200807
1850,214218,200870
1803,214299,200893
1838,214314,200906
1813,214167,200827
1855,213817,200660
1801,213246,200392
1885,212558,200076
1789,211856,199760
1780,211229,199472
1611,210707,199236
1648,210344,199074
1481,210136,199009
1585,210100,199002
1535,210151,199040
1578,210286,199095
1485,210424,199158
1633,210605,199243
1502,210779,199328
1616,210967,199418
1611,211138,199490
1715,211295,199550
1652,211424,199594
1749,211559,199655
1554,211677,199680
1671,211816,199751
1559,211965,199817
1778,212111,199885
1554,212251,199942
1923,212341,199980
1757,212380,199987
1831,212385,199990
1618,212352,199957
1727,212320,199945
1565,212292,199939
1789,212290,199927
1469,212238,199932
1814,212235,199914
1609,212211,199906
1840,212192,199898
1570,212199,199898
2070,212230,199902
2359,212294,199935
2481,212380,199981
1589,212474,200009
1882,212552,200050
1535,212635,200082
1841,212726,200127
1573,212824,200163
1822,212920,200221
1535,213032,200242
1875,213133,200291
1586,213218,200335
1885,213290,200365
1670,213356,200385
1974,213386,200399
1599,213432,200415
2077,213516,200451
1698,213588,200483
2062,213631,200506
1699,213642,200515
2192,213587,200480
1803,213370,200363
2138,212951,200169
1905,212370,199895
2175,211716,199609
1751,211081,199311
2041,210560,199081
1600,210180,198921
1840,209957,198828
1528,209898,198817
1878,209937,198870
1457,210048,198921
1915,210188,198984
1499,210334,199043
1879,210507,199122
1558,210710,199212
1847,210953,199332
1535,211192,199447
1949,211458,199551
1518,211640,199644
1876,211854,199746
1535,212055,199851
1951,212272,199939
1521,212461,200039
1987,212643,200098
1591,212750,200156
2016,212849,200186
1631,212879,200203
1979,212885,200197
1488,212891,200191
1888,212889,200205
1500,212848,200177
1911,212756,200143
1488,212665,200083
2001,212581,200054
1648,212537,200043
2064,212554,200047
1959,212574,200063
2851,212646,200092
2186,212716,200127
1973,212803,200166
1638,212888,200205
1974,212971,200238
1617,213048,200275
1989,213129,200314
1678,213231,200373
1978,213329,200400
1666,213417,200435
2030,213494,200458
1715,213573,200479
2022,213638,200517
1747,213743,200555
1990,213854,200614
1702,213975,200670
2129,214078,200714
1777,214140,200736
2062,214169,200719
1758,214109,200666
2123,213876,200541
1835,213419,200323
2033,212830,200043
1795,212205,199765
2031,211633,199512
1664,211212,199343
1831,210984,199255
1520,210904,199234
1712,210909,199259
1443,210993,199299
1643,211096,199350
1571,211244,199423
1747,211409,199499
1502,211624,199601
1714,211852,199703
1554,212056,199798
1728,212200,199845
1523,212316,199902
1788,212395,199937
1530,212501,199972
1669,212639,200038
1633,212794,200115
1789,212924,200188
1619,213057,200227
1842,213139,200268
1731,213172,200263
1782,213146,200248
1581,213093,200227
1750,213005,200174
1600,212962,200145
1643,212901,200124
1634,212878,200116
1774,212870,200127
1674,212867,200151
1632,212848,200121
1787,212823,200123
2061,212807,200089
2507,212797,200087
2186,212807,200078
1593,212841,200092
1703,212899,200126
1663,212980,200156
1684,213062,200199
1759,213167,200238
1680,213237,200276
1707,213310,200290
1697,213382,200327
1845,213467,200361
1686,213551,200403
1837,213660,200446
1855,213785,200489
1936,213908,200546
1834,213999,200577
2023,214079,200610
1936,214156,200626
2081,214176,200637
2069,214100,200584
2251,213808,200462
2026,213334,200234
2177,212753,199981
1947,212197,199720
2082,211705,199509
1819,211336,199343
1956,211087,199228
1669,210986,199205
1980,211006,199236
1747,211083,199279
1934,211222,199338
1737,211375,199418
1899,211568,199486
1680,211748,199568
1899,211963,199665
1766,212206,199781
1999,212471,199908
1616,212687,200015
1956,212897,200106
1680,213080,200190
1917,213280,200272
1613,213478,200351
1946,213646,200428
1617,213739,200450
1926,213793,200463
1647,213796,200460
1921,213752,200445
1715,213697,200421
2043,213666,200415
1698,213623,200388
1949,213579,200362
1594,213522,200332
1891,213475,200299
1648,213431,200296
1952,213428,200289
1502,213457,200326
2066,213522,200347
1671,213577,200371
2079,213662,200398
2281,213713,200410
2787,213824,200449
1831,213920,200500
1879,214019,200540
1695,214099,200574
1934,214190,200600
1558,214254,200615
1920,214298,200638
1610,214358,200645
1939,214468,200706
1535,214549,200736
1993,214628,200756
1501,214714,200785
1962,214790,200819
1590,214855,200853
2000,214944,200882
1696,215009,200912
2089,215079,200933
1722,215068,200929
2062,214998,200879
1783,214741,200755
2154,214272,200528
1755,213615,200248
2161,212936,199944
1685,212343,199669
2002,211846,199443
1598,211498,199310
1908,211334,199239
1440,211312,199236
1851,211416,199319
1487,211602,199410
1831,211842,199532
1488,212093,199645
1841,212355,199774
1535,212600,199866
1951,212817,199977
1494,213022,200061
2000,213196,200142
1581,213370,200211
1914,213543,200299
1647,213737,200370
1962,213929,200458
1565,214096,200526
1931,214220,200572
1689,214299,200600
2066,214312,200606
1675,214275,200587
2042,214230,200551
1763,214183,200532
1969,214116,200507
1665,214081,200494
1945,214062,200479
1599,214057,200475
1917,214084,200504
1655,214135,200527
2005,214222,200578
1611,214304,200633
2027,214407,200698
1942,214515,200750
2765,214617,200812
2159,214719,200858
1845,214822,200902
1619,214928,200946
1808,215023,200998
1558,215109,201022
1805,215144,201037
1535,215175,201053
1842,215182,201044
1642,215214,201058
1893,215257,201063
1630,215289,201083
1914,215335,201074
1754,215380,201101
1923,215430,201125
1854,215476,201143
1963,215518,201161
1827,215551,201169
2065,215527,201141
1958,215434,201091
2061,215134,200943
1936,214636,200704
2086,213953,200408
1913,213282,200110
2018,212707,199858
1728,212283,199671
1838,212005,199565
1628,211890,199497
1680,211859,199504
1688,211952,199551
1775,212070,199622
1737,212257,199687
1773,212469,199781
1702,212715,199898
1830,212992,200017
1763,213236,200136
1829,213475,200221
1790,213697,200324
1795,213914,200405
1765,214115,200504
1840,214294,200559
1761,214451,200631
1794,214585,200686
1773,214692,200733
1773,214787,200771
1825,214852,200801
1837,214861,200795
1815,214873,200796
1909,214842,200792
1886,214810,200784
1733,214784,200777
1760,214771,200765
1675,214753,200773
1813,214783,200767
1650,214789,200768
1823,214803,200767
1665,214804,200767
1794,214829,200764
1721,214838,200769
2203,214865,200791
2439,214899,200778
2114,214948,200812
1488,214985,200822
1822,215021,200828
1555,215046,200836
1693,215098,200847
1575,215163,200870
1758,215261,200929
1573,215361,200974
1841,215454,201025
1584,215489,201035
1839,215536,201036
1686,215565,201052
1904,215630,201055
1632,215655,201076
1895,215717,201101
1753,215766,201116
1980,215811,201138
1791,215820,201118
2023,215683,201067
1845,215343,200893
2055,214814,200649
1725,214193,200393
2031,213574,200140
1616,213068,199920
1865,212728,199775
1469,212522,199698
1709,212449,199663
1361,212479,199687
1746,212589,199733
1419,212737,199802
1727,212923,199883
1488,213128,199966
1817,213380,200077
1472,213648,200194
1888,213920,200289
1535,214155,200404
1913,214389,200506
1601,214596,200589
1923,214796,200673
1558,214978,200745
1966,215180,200833
1565,215331,200898
1964,215462,200977
1616,215558,201020
1936,215613,201053
1600,215639,201053
2032,215634,201068
1628,215611,201057
1903,215608,201044
1502,215580,201048
1867,215587,201048
1504,215574,201053
1797,215592,201056
1483,215581,201065
1808,215611,201067
1344,215630,201094
1826,215692,201121
1617,215751,201166
2551,215806,201190
2010,215849,201201
1741,215874,201206
1307,215883,201192
1775,215892,201198
1305,215905,201173
1681,215928,201180
1363,215967,201178
1775,215984,201195
1441,216014,201202
1825,216036,201217
1391,216057,201207
1865,216076,201206
1527,216097,201224
1875,216135,201245
1621,216150,201257
2012,216179,201262
1642,216192,201270
2061,216210,201269
1732,216167,201263
2096,216066,201200
1629,215816,201110
2047,215405,200924
1712,214898,200729
2000,214396,200521
1594,213948,200323
1830,213589,200182
1514,213359,200070
1719,213234,200017
1447,213241,200024
1840,213371,200081
1462,213568,200170
1814,213817,200288
1519,214078,200419
1844,214330,200518
1584,214568,200636
1857,214782,200721
1583,214979,200812
1849,215143,200882
1639,215280,200942
1863,215396,200970
1597,215502,201020
1881,215633,201070
1681,215743,201120
1903,215843,201166
1696,215915,201198
1987,215935,201204
1767,215916,201198
1926,215865,201158
1650,215806,201140
1932,215771,201126
1662,215710,201095
1930,215668,201071
1711,215608,201034
1901,215550,201007
1743,215519,200995
1967,215513,200991
2162,215537,201012
2663,215582,201030
2143,215635,201047
1781,215676,201058
1767,215708,201077
1799,215744,201081
1705,215794,201107
1781,215862,201140
1661,215920,201175
1761,215980,201206
1751,216031,201219
1794,216077,201244
1769,216120,201262
1817,216153,201271
1885,216194,201293
1945,216249,201310
1840,216285,201326
1904,216306,201332
2007,216330,201323
2000,216335,201324
2047,216307,201308
2125,216191,201242
2064,215924,201132
2001,215500,200933
2026,214970,200719
1920,214501,200512
1870,214090,200351
1808,213825,200257
1828,213726,200227
1744,213729,200226
1817,213770,200263
1780,213868,200297
1847,213972,200337
1724,214086,200387
1838,214202,200423
1650,214291,200446
1802,214381,200481
1748,214479,200505
1862,214575,200537
1669,214691,200581
1919,214817,200617
1703,214905,200655
1947,215000,200676
1771,215079,200712
1968,215164,200745
1808,215193,200745
2068,215215,200750
1847,215193,200734
1980,215138,200691
1801,215047,200650
1958,214967,200612
1783,214912,200591
1910,214878,200573
1732,214823,200532
2035,214748,200500
1727,214689,200475
2082,214679,200459
2221,214673,200458
2780,214718,200481
2021,214801,200503
1760,214896,200565
1677,214977,200599
1955,215044,200618
1578,215078,200634
1851,215124,200653
1613,215172,200672
1891,215250,200702
1584,215361,200745
1942,215478,200806
1611,215614,200869
1941,215738,200940
1706,215869,201007
1977,215987,201078
1673,216101,201126
2069,216182,201173
1671,216213,201170
2046,216199,201144
1675,216080,201050
2025,215787,200915
1710,215281,200662
2091,214613,200375
1677,213958,200092
1986,213342,199823
1607,212866,199613
1839,212561,199497
1474,212410,199444
1869,212426,199458
1421,212571,199541
1869,212770,199639
1509,212986,199741
1903,213210,199835
1535,213450,199937
1936,213663,200028
1535,213880,200108
1994,214086,200198
1584,214256,200260
1952,214414,200323
1553,214557,200385
1936,214726,200448
1581,214883,200509
1976,215018,200574
1607,215107,200603
1991,215110,200598
1682,215103,200581
2121,215068,200558
1602,215032,200530
1936,214982,200513
1509,214936,200482
1827,214883,200454
1574,214834,200432
1873,214771,200416
1489,214741,200414
1920,214734,200406
1571,214759,200416
2103,214813,200440
2129,214881,200484
2743,214968,200520
1744,215038,200559
1835,215092,200580
1535,215118,200595
1839,215146,200599
1475,215182,200600
1850,215210,200606
1520,215253,200615
1865,215276,200639
1520,215339,200657
1904,215421,200691
1583,215489,200714
1903,215536,200747
1587,215596,200767
1914,215643,200795
1639,215683,200804
1957,215712,200812
1746,215742,200831
2078,215734,200810
1773,215599,200754
2021,215281,200600
1754,214745,200376
2043,214117,200104
1744,213466,199820
1914,212937,199585
1574,212564,199431
1790,212327,199337
1478,212216,199293
1712,212244,199319
1510,212353,199382
1745,212506,199444
1523,212709,199530
1755,212884,199602
1600,213095,199698
1838,213320,199791
1615,213508,199880
1841,213692,199960
1575,213864,200037
1857,214023,200090
1665,214151,200135
1777,214226,200135
1593,214267,200154
1753,214276,200120
1599,214271,200111
1726,214246,200087
1680,214201,200030
1726,214100,199965
1616,213966,199876
1643,213800,199777
1489,213655,199687
1526,213541,199613
1466,213473,199556
1617,213446,199537
1488,213460,199521
1635,213502,199533
1507,213586,199562
1660,213675,199581
1938,213814,199624
2352,213942,199656
2032,214091,199725
1456,214238,199805
1437,214393,199871
1390,214501,199894
1365,214568,199931
1261,214639,199933
1315,214659,199936
1306,214683,199915
1289,214695,199887
1283,214737,199894
1314,214785,199899
1223,214816,199907
1328,214836,199894
1269,214841,199875
1355,214854,199844
1260,214842,199826
1417,214830,199811
1347,214804,199771
1448,214724,199714
1405,214547,199626
1451,214303,199506
1303,214002,199380
1405,213709,199261
1158,213447,199144
1223,213293,199104
1022,213221,199079
1061,213240,199114
928,213319,199147
1070,213413,199203
903,213507,199231
1168,213602,199262
944,213661,199260
1200,213696,199249
1018,213725,199256
1181,213847,199296
1023,213938,199348
1282,214050,199401
977,214150,199450
1263,214274,199510
965,214363,199546
1183,214436,199556
892,214461,199575
1152,214517,199589
934,214532,199612
1230,214540,199613
978,214524,199599
1290,214534,199609
1095,214518,199612
1308,214523,199614
928,214524,199615
1270,214516,199627
1002,214514,199619
1262,214505,199624
941,214516,199617
1360,214504,199627
991,214520,199634
1380,214555,199655
1101,214575,199653
1648,214590,199672
1782,214581,199661
2128,214591,199652
1071,214601,199669
1454,214625,199674
1104,214651,199702
1535,214705,199719
1135,214758,199759
1510,214835,199797
1210,214872,199826
1609,214919,199849
1263,214966,199870
1729,215002,199895
1344,215054,199913
1766,215094,199942
1387,215132,199969
1734,215159,199976
1328,215174,199973
1825,215178,199979
1443,215157,199950
1870,215117,199938
1487,214982,199887
1884,214765,199790
1535,214447,199669
1971,214102,199516
1530,213711,199360
1825,213368,199217
1408,213144,199135
1743,213028,199106
1287,213025,199098
1725,213100,199146
1414,213221,199205
1777,213389,199272
1402,213545,199338
1883,213709,199429
1511,213863,199484
1841,214011,199556
1535,214143,199628
1941,214237,199667
1553,214328,199704
1957,214432,199751
1607,214500,199780
1935,214593,199803
1584,214645,199829
2006,214669,199833
1650,214687,199844
2017,214707,199863
1589,214697,199849
2037,214674,199847
1667,214659,199844
2064,214638,199827
1817,214606,199810
2091,214591,199803
1666,214576,199778
2021,214545,199781
1678,214572,199789
2013,214593,199787
1683,214590,199786
2000,214621,199800
1749,214659,199820
2097,214708,199841
1897,214743,199863
2611,214779,199863
2451,214815,199892
2158,214847,199902
1488,214881,199918
2061,214906,199921
1731,214935,199938
1952,214942,199928
1694,214955,199931
1982,214987,199942
1712,215011,199946
2000,215042,199952
1821,215057,199962
2043,215075,199971
1834,215094,199986
2091,215129,199995
1870,215150,200010
1968,215161,200017
2015,215191,200021
2157,215191,200028
1951,215175,200024
2112,215067,199959
2074,214860,199866
2114,214569,199736
1918,214186,199597
2161,213794,199420
1931,213410,199264
1983,213111,199137
1799,212912,199067
1946,212839,199036
1774,212869,199048
1859,212973,199102
1787,213128,199156
1904,213288,199232
1823,213452,199302
1869,213608,199354
1900,213724,199397
1869,213830,199451
1863,213939,199488
1930,214061,199539
1889,214175,199599
1872,214292,199642
1889,214389,199676
1874,214481,199721
1852,214536,199751
1790,214574,199751
1921,214606,199773
1875,214614,199779
1997,214605,199772
1886,214572,199749
1923,214537,199733
1843,214488,199714
1875,214465,199705
1786,214437,199710
1904,214440,199688
1826,214434,199707
1887,214450,199705
1819,214486,199734
1947,214522,199746
1886,214552,199769
2442,214590,199760
2511,214610,199772
2137,214632,199769
1650,214665,199781
1871,214685,199803
1747,214719,199814
1872,214756,199838
1718,214817,199852
1919,214840,199864
1728,214876,199868
2033,214892,199877
1770,214901,199875
2035,214909,199870
1859,214913,199879
2109,214963,199893
1920,215017,199926
2160,215061,199928
1895,215059,199938
2191,215044,199930
1996,215016,199900
2256,214937,199869
1975,214749,199769
2199,214491,199657
1956,214140,199512
2243,213719,199341
1872,213297,199165
2081,212974,199046
1791,212789,198965
1952,212719,198940
1670,212750,198966
1986,212836,199016
1685,212952,199066
1995,213105,199125
1671,213249,199187
2017,213434,199256
1645,213601,199325
1968,213755,199385
1651,213861,199429
1917,213979,199476
1645,214091,199526
1991,214213,199583
1630,214324,199621
1980,214428,199676
1613,214510,199702
1949,214536,199728
1568,214570,199723
1952,214578,199736
1637,214567,199716
2023,214562,199718
1714,214543,199709
2167,214532,199695
1745,214488,199684
2096,214475,199682
1675,214472,199687
2000,214475,199692
1581,214487,199705
2010,214506,199702
1519,214522,199711
2007,214551,199711
1657,214593,199739
2015,214619,199743
1677,214649,199760
2615,214689,199777
2304,214718,199780
2041,214758,199800
1411,214777,199806
1886,214791,199816
1503,214843,199817
1837,214861,199824
1502,214879,199837
1855,214909,199842
1523,214947,199870
1936,214974,199894
1535,214993,199883
1961,215025,199886
1590,215057,199913
2011,215095,199924
1649,215137,199951
1985,215174,199952
1664,215170,199980
2106,215192,199961
1760,215158,199964
2065,215060,199897
1779,214825,199794
2070,214497,199659
1674,214095,199486
2021,213659,199298
1611,213294,199142
1803,213059,199067
1447,212945,199022
1726,212940,199032
1395,213006,199064
1713,213120,199104
1393,213230,199161
1734,213386,199227
1495,213534,199290
1778,213697,199336
1519,213808,199381
1854,213915,199417
1554,213996,199448
1808,214083,199481
1604,214181,199526
1861,214283,199574
1514,214398,199631
1765,214489,199660
1573,214545,199691
1728,214588,199698
1398,214614,199705
1633,214604,199708
1295,214577,199687
1502,214517,199657
1248,214485,199633
1465,214422,199609
1143,214365,199572
1357,214306,199555
1161,214284,199524
1229,214272,199511
974,214265,199513
1225,214275,199512
995,214297,199524
1202,214324,199528
1072,214360,199571
1233,214418,199580
1152,214478,199615
1329,214522,199629
1231,214557,199648
1825,214587,199657
2083,214623,199677
1655,214640,199678
1136,214682,199685
1423,214718,199694
1371,214730,199702
1392,214751,199706
1392,214783,199715
1521,214803,199722
1520,214811,199713
1563,214810,199718
1585,214824,199709
1710,214840,199709
1695,214857,199728
1759,214874,199721
1803,214903,199739
1847,214929,199750
1818,214948,199750
1811,214943,199747
2001,214923,199735
1998,214828,199685
1971,214651,199610
1975,214341,199492
2032,213964,199313
1904,213513,199133
1968,213121,198969
1872,212835,198870
1813,212678,198811
1741,212629,198806
1850,212683,198826
1757,212762,198868
1821,212876,198903
1726,212987,198950
1818,213143,199005
1755,213298,199067
1875,213453,199135
1703,213582,199179
1877,213713,199227
1728,213805,199263
1849,213928,199330
1731,214042,199368
1939,214164,199437
1728,214282,199486
1918,214378,199523
1745,214438,199548
1979,214482,199568
1750,214516,199590
1997,214529,199596
1799,214537,199603
2001,214520,199586
1795,214479,199593
2000,214472,199565
1743,214437,199562
2069,214425,199541
1746,214410,199543
2025,214421,199533
1873,214420,199540
2083,214460,199548
1745,214464,199563
2001,214504,199589
1658,214543,199586
1968,214579,199605
1658,214612,199612
1991,214651,199634
1712,214691,199647
2002,214723,199664
1808,214761,199686
2537,214802,199703
2384,214837,199722
2139,214887,199727
1457,214923,199749
1941,214949,199769
1600,214980,199767
1950,215034,199803
1559,215070,199823
1898,215134,199855
1520,215168,199870
1968,215204,199893
1562,215239,199900
1983,215246,199890
1595,215262,199893
1968,215285,199914
1673,215312,199925
2005,215366,199963
1669,215401,199992
2096,215444,200001
1699,215442,200010
2159,215370,199974
1706,215176,199890
2054,214882,199752
1698,214495,199593
2023,214103,199428
1607,213661,199253
1910,213372,199153
1392,213210,199087
1711,213138,199061
1207,213134,199068
1629,213200,199102
1255,213339,199142
1650,213504,199229
1264,213693,199302
1659,213892,199379
1263,214029,199449
1791,214157,199485
1340,214256,199531
1670,214371,199579
1328,214445,199628
1767,214541,199651
1366,214599,199688
1723,214665,199690
1378,214707,199702
1778,214731,199711
1387,214714,199702
1779,214700,199694
1389,214676,199675
1797,214656,199661
1434,214647,199661
1749,214609,199658
1454,214602,199644
1851,214584,199651
1530,214578,199644
1867,214589,199649
1579,214601,199648
1840,214627,199666
1483,214651,199670
1825,214661,199672
1488,214689,199675
1818,214754,199710
1491,214787,199720
1780,214855,199744
1616,214889,199764
1974,214948,199784
2111,214999,199819
2604,215046,199825
1751,215075,199855
1587,215115,199862
1520,215150,199884
1737,215158,199879
1424,215165,199878
1667,215178,199887
1481,215201,199890
1793,215238,199912
1504,215289,199924
1773,215310,199945
1649,215327,199953
1866,215351,199952
1711,215373,199979
1909,215417,199992
1733,215434,199997
1909,215463,200009
1728,215475,200008
1999,215440,199990
1805,215347,199949
2003,215150,199862
1776,214818,199718
1955,214440,199551
1809,214005,199363
1837,213579,199181
1678,213234,199047
1690,212997,198947
1597,212893,198898
1681,212899,198912
1507,212987,198964
1623,213123,199014
1574,213279,199086
1605,213428,199140
1574,213586,199198
1650,213712,199259
1648,213835,199312
1670,213932,199347
1651,214019,199380
1649,214107,199418
1649,214202,199465
1716,214305,199499
1693,214405,199576
1719,214503,199610
1707,214599,199655
1728,214657,199682
1777,214684,199681
1683,214644,199667
1755,214620,199640
1711,214577,199629
1859,214540,199616
1821,214511,199608
1831,214487,199596
1819,214469,199583
1937,214445,199587
1797,214426,199570
1875,214417,199567
1698,214424,199569
1866,214442,199572
1790,214457,199582
1870,214473,199583
1806,214526,199614
1886,214575,199648
1841,214623,199658
2173,214675,199687
2511,214705,199682
2663,214739,199692
1772,214764,199698
1951,214797,199713
1781,214835,199729
1858,214882,199757
1717,214933,199784
2009,214989,199811
1691,215027,199829
1979,215063,199837
1808,215085,199846
2009,215124,199856
1856,215156,199862
2071,215167,199886
1794,215210,199903
2146,215249,199907
1936,215251,199902
2169,215247,199897
1970,215235,199886
2209,215180,199845
1979,215021,199788
2238,214753,199656
2026,214323,199481
2251,213760,199228
1955,213235,199008
2153,212773,198825
1771,212430,198689
1989,212259,198634
1680,212246,198638
2010,212318,198679
1666,212460,198731
2062,212615,198809
1722,212787,198875
2043,212971,198959
1714,213143,199038
2083,213310,199105
1746,213459,199165
2128,213604,199214
1775,213738,199274
2187,213861,199329
1778,214005,199388
2174,214150,199453
1778,214275,199503
2114,214366,199548
1728,214424,199571
2037,214480,199570
1715,214489,199583
2109,214484,199581
1686,214466,199578
2089,214448,199574
1745,214423,199564
2043,214398,199551
1680,214383,199548
2126,214358,199552
1680,214362,199537
2012,214359,199555
1535,214386,199552
1955,214412,199577
1615,214438,199581
1936,214481,199594
1609,214521,199610
2033,214559,199618
1680,214594,199643
2189,214657,199660
2321,214710,199674
2685,214752,199683
1589,214781,199700
1887,214825,199728
1599,214871,199736
1943,214912,199763
1527,214954,199783
1904,215010,199808
1660,215066,199839
2020,215109,199851
1639,215134,199865
2045,215136,199858
1722,215167,199857
2135,215170,199868
1731,215199,199871
2134,215221,199879
1745,215240,199879
2209,215247,199881
1888,215276,199884
2167,215250,199882
1886,215156,199830
2259,214945,199717
1899,214570,199563
2149,214029,199315
1831,213448,199070
2123,212960,198869
1677,212589,198715
1963,212388,198635
1586,212334,198627
1853,212378,198666
1508,212478,198706
1843,212600,198761
1531,212754,198821
1867,212919,198886
1643,213077,198952
1926,213229,199013
1648,213358,199067
1967,213464,199110
1686,213582,199164
1919,213693,199202
1747,213814,199256
1919,213952,199302
1681,214077,199363
1904,214184,199395
1643,214268,199431
1833,214314,199433
1667,214331,199455
1827,214330,199445
1616,214305,199419
1919,214273,199406
1713,214224,199388
1886,214188,199365
1712,214157,199353
1890,214109,199322
1664,214084,199309
1791,214073,199306
1648,214115,199323
1765,214145,199348
1702,214217,199393
1758,214283,199429
1655,214372,199470
1811,214447,199493
1682,214513,199520
2167,214549,199533
2480,214585,199529
2271,214577,199523
1520,214603,199522
1807,214611,199496
1702,214639,199504
1683,214658,199499
1665,214714,199512
1697,214751,199531
1711,214835,199552
1730,214859,199589
1725,214925,199605
1703,214933,199620
1740,214976,199628
1724,215022,199665
1732,215075,199692
1714,215112,199712
1819,215139,199715
1747,215131,199702
1775,215104,199692
1767,215030,199646
1850,214885,199583
1765,214596,199455
1821,214169,199277
1765,213623,199038
1814,213127,198841
1615,212721,198669
1673,212426,198562
1434,212252,198475
1598,212213,198468
1432,212261,198495
1616,212384,198559
1535,212540,198617
1648,212717,198702
1559,212904,198780
1751,213081,198853
1616,213240,198910
1742,213399,198968
1573,213544,199040
1819,213699,199103
1616,213826,199159
1778,213980,199239
1606,214144,199293
1809,214276,199362
1572,214375,199397
1727,214434,199427
1632,214440,199408
1813,214445,199415
1567,214438,199398
1847,214405,199394
1587,214387,199388
1845,214386,199399
1568,214375,199387
1888,214359,199395
1535,214341,199380
1816,214325,199366
1447,214317,199365
1786,214334,199361
1470,214367,199386
1791,214430,199412
1426,214476,199439
1728,214540,199462
1478,214585,199484
1872,214645,199506
1902,214690,199531
2559,214734,199540
1779,214770,199563
1597,214804,199574
1322,214837,199578
1750,214861,199575
1327,214870,199567
1750,214888,199593
1395,214917,199589
1731,214945,199598
1329,214946,199603
1762,214950,199586
1469,214934,199561
1714,214941,199564
1534,214959,199568
1881,215000,199579
1479,215021,199602
1859,215040,199601
1516,214998,199585
1904,214972,199568
1525,214900,199520
1989,214679,199417
1575,214323,199259
1920,213819,199038
1515,213265,198812
1861,212808,198630
1363,212471,198494
1723,212241,198402
1274,212123,198354
1645,212114,198345
1253,212159,198373
1695,212278,198414
1236,212438,198496
1729,212618,198570
1392,212799,198652
1731,212975,198716
1383,213129,198767
1813,213276,198837
1410,213429,198880
1773,213599,198966
1466,213775,199042
1873,213954,199125
1492,214110,199189
1835,214246,199252
1568,214359,199311
1884,214431,199327
1520,214451,199323
1998,214427,199309
1566,214380,199276
1863,214334,199250
1568,214269,199225
1936,214243,199213
1577,214183,199198
2032,214153,199173
1605,214139,199189
1905,214103,199159
1575,214074,199138
1871,214039,199109
1526,214031,199107
1819,214052,199104
1513,214069,199111
1881,214133,199143
1559,214205,199169
1844,214272,199209
1948,214352,199252
2651,214422,199299
1984,214490,199306
1712,214512,199321
1505,214539,199317
1809,214564,199326
1456,214595,199332
1786,214623,199345
1509,214640,199369
1835,214687,199366
1596,214696,199385
1863,214734,199394
1627,214768,199407
1910,214782,199422
1737,214820,199438
1969,214856,199450
1721,214879,199458
2027,214889,199455
1801,214877,199445
2028,214863,199427
1867,214795,199377
2000,214621,199306
1936,214349,199172
2133,213914,199000
1921,213391,198756
2019,212927,198586
1732,212556,198425
1831,212330,198344
1687,212254,198323
1787,212277,198335
1671,212375,198388
1794,212516,198445
1775,212669,198512
1807,212845,198585
1731,213014,198654
1821,213159,198712
1801,213322,198764
1875,213450,198816
1739,213580,198865
1831,213692,198920
1824,213836,198961
1797,213957,199025
1761,214058,199049
1824,214158,199099
1821,214242,199149
1827,214306,199175
1831,214347,199192
1844,214352,199183
1855,214332,199176
1829,214302,199150
1931,214263,199150
1879,214221,199130
1910,214158,199114
1901,214116,199083
2020,214084,199072
1867,214074,199049
1936,214083,199066
1768,214109,199070
1951,214139,199080
1757,214144,199074
1869,214179,199094
1805,214225,199112
1943,214286,199137
1798,214329,199166
2157,214375,199193
2559,214436,199204
2559,214480,199237
1696,214524,199248
1808,214551,199265
1729,214585,199265
1783,214610,199280
1645,214641,199280
1875,214668,199300
1693,214700,199320
1917,214745,199339
1649,214769,199349
1916,214809,199377
1728,214821,199364
1874,214834,199368
1781,214851,199393
1997,214889,199381
1759,214919,199408
2032,214941,199419
1876,214950,199416
2160,214886,199380
1886,214708,199296
2139,214414,199157
1901,214002,198977
2123,213512,198777
1763,213072,198584
1986,212711,198457
1616,212473,198365
1871,212367,198329
1437,212387,198358
1826,212470,198396
1456,212603,198454
1845,212786,198530
1526,212994,198623
1840,213178,198687
1535,213351,198754
1892,213478,198801
1583,213616,198851
1836,213747,198898
1590,213851,198951
1879,213970,198988
1535,214082,199043
1927,214200,199085
1555,214298,199133
1904,214417,199188
1596,214477,199211
1937,214520,199244
1600,214515,199244
1964,214522,199231
1579,214466,199200
1898,214394,199174
1653,214349,199150
1985,214313,199148
1715,214294,199132
2022,214290,199130
1589,214276,199134
1897,214265,199118
1553,214274,199129
1939,214300,199125
1501,214311,199127
1872,214303,199114
1535,214308,199113
1906,214347,199115
1584,214390,199135
2349,214447,199175
2363,214499,199200
2384,214534,199216
1482,214569,199225
1904,214611,199237
1521,214632,199244
1849,214655,199250
1475,214695,199260
1919,214714,199267
1535,214745,199272
1915,214778,199301
1583,214795,199317
1969,214852,199329
1614,214881,199359
2007,214925,199355
1678,214934,199355
2067,214953,199363
1712,214948,199344
2112,214950,199333
1853,214938,199326
2221,214878,199305
1776,214715,199227
2227,214424,199101
1871,214049,198926
2245,213576,198754
1803,213161,198575
2059,212864,198466
1555,212669,198394
1815,212575,198361
1523,212585,198367
1805,212654,198401
1460,212778,198454
1856,212936,198514
1595,213111,198592
1891,213298,198655
1535,213458,198725
1872,213594,198781
1586,213724,198839
1855,213831,198889
1602,213950,198939
1899,214036,198970
1610,214143,199008
1847,214233,199064
1623,214336,199080
1856,214398,199124
1627,214444,199137
1791,214448,199129
1575,214430,199124
1869,214419,199123
1673,214391,199102
1919,214377,199097
1715,214364,199089
1970,214332,199073
1745,214296,199050
1866,214256,199029
1664,214226,199023
1874,214221,199023
1750,214220,199025
1877,214255,199032
1682,214276,199056
1854,214306,199056
1776,214333,199068
1808,214368,199081
2014,214412,199104
2587,214463,199121
2224,214484,199135
1683,214505,199136
1645,214515,199131
1722,214540,199131
1616,214575,199156
1687,214600,199159
1648,214640,199186
1729,214679,199190
1675,214721,199224
1765,214738,199218
1712,214763,199224
1776,214755,199215
1775,214759,199208
1808,214782,199208
1773,214819,199231
1865,214835,199253
1839,214854,199247
1899,214855,199263
1968,214824,199238
1965,214684,199196
1927,214437,199071
1968,214059,198906
1981,213570,198691
1821,213115,198499
1790,212764,198368
1657,212524,198263
1616,212401,198224
1565,212401,198223
1665,212489,198270
1579,212617,198298
1675,212749,198378
1611,212903,198434
1695,213073,198507
1584,213239,198574
1703,213406,198650
1626,213545,198707
1776,213671,198735
1652,213733,198770
1803,213821,198796
1645,213900,198835
1799,213997,198862
1648,214079,198903
1837,214154,198917
1670,214160,198932
1765,214174,198933
1692,214162,198922
1863,214151,198918
1663,214139,198921
1885,214122,198922
1671,214104,198900
1799,214094,198903
1440,214073,198886
1642,214064,198894
1392,214092,198898
1638,214110,198905
1392,214135,198920
1653,214165,198932
1316,214187,198941
1687,214217,198950
1439,214251,198967
2268,214304,198990
2115,214360,199015
1831,214420,199041
1247,214449,199053
1634,214471,199058
1270,214471,199053
1521,214476,199044
1292,214484,199051
1679,214498,199040
1301,214507,199033
1774,214540,199053
1441,214567,199056
1781,214585,199068
1513,214612,199070
1860,214634,199083
1531,214652,199087
1904,214666,199104
1557,214661,199092
2021,214638,199084
1677,214614,199059
2007,214501,199001
1690,214270,198897
2119,213924,198747
1726,213469,198558
2015,213026,198363
1593,212659,198223
1874,212390,198114
1495,212235,198060
1817,212198,198058
1439,212228,198068
1873,212329,198120
1475,212478,198162
1829,212634,198241
1516,212805,198294
1923,212957,198346
1525,213103,198416
1872,213228,198453
1491,213331,198508
1932,213420,198535
1456,213509,198563
1889,213597,198597
1406,213659,198624
1872,213741,198653
1430,213827,198682
1886,213899,198712
1478,213922,198730
1839,213931,198731
1476,213914,198709
1885,213861,198683
1461,213794,198649
1968,213725,198618
1563,213691,198588
1867,213665,198581
1405,213661,198586
1777,213646,198575
1413,213662,198563
1790,213669,198554
1351,213681,198544
1794,213702,198552
1456,213751,198582
1845,213813,198602
1898,213865,198623
2613,213928,198639
1788,213970,198662
1697,214030,198667
1446,214082,198698
1712,214113,198712
1379,214133,198717
1712,214126,198708
1414,214169,198720
1690,214223,198752
1447,214317,198784
1728,214364,198811
1567,214428,198831
1797,214442,198846
1578,214472,198833
1905,214468,198846
1678,214484,198842
1990,214482,198837
1703,214469,198817
2101,214448,198800
1808,214332,198745
2063,214147,198635
1825,213830,198495
2079,213455,198313
1791,213060,198158
1867,212702,198006
1600,212463,197919
1669,212308,197866
1513,212261,197854
1598,212314,197892
1485,212451,197947
1737,212599,198017
1535,212734,198076
1699,212900,198148
1535,213069,198232
1762,213256,198313
1534,213419,198387
1683,213557,198461
1597,213675,198522
1706,213798,198571
1531,213920,198633
1694,214016,198675
1553,214105,198720
1645,214180,198736
1558,214212,198757
1675,214248,198766
1594,214260,198757
1668,214250,198765
1577,214249,198757
1726,214201,198734
1633,214166,198702
1658,214110,198688
1629,214086,198669
1559,214073,198657
1535,214070,198657
1583,214054,198647
1597,214044,198652
1535,214067,198654
1535,214093,198671
1588,214109,198674
1721,214144,198694
2191,214173,198707
2423,214206,198721
1817,214248,198739
1485,214299,198765
1535,214359,198791
1586,214382,198808
1470,214396,198806
1531,214414,198797
1519,214420,198793
1675,214417,198801
1622,214456,198809
1696,214479,198815
1614,214478,198823
1793,214487,198823
1626,214502,198820
1872,214514,198815
1773,214508,198802
2000,214507,198798
1835,214486,198788
1986,214452,198771
1891,214351,198708
2114,214179,198642
1918,213893,198521
2079,213517,198365
1906,213074,198178
2065,212669,197995
1751,212376,197885
1937,212187,197823
1723,212141,197802
1951,212192,197839
1634,212301,197885
1917,212419,197930
1737,212563,197975
1986,212695,198025
1719,212843,198083
2099,212978,198120
1803,213125,198192
2083,213245,198241
1773,213359,198279
2003,213445,198331
1762,213541,198364
1998,213630,198391
1680,213725,198417
1982,213805,198460
1754,213860,198476
2006,213898,198508
1657,213928,198520
2111,213914,198513
1744,213894,198513
1990,213880,198494
1614,213833,198464
1930,213792,198440
1628,213758,198417
1877,213717,198411
1519,213713,198398
1925,213716,198408
1632,213748,198406
1968,213770,198431
2027,213788,198435
2631,213825,198449
1810,213877,198471
1719,213925,198482
1490,213946,198492
1838,213979,198499
1425,214016,198519
1731,214051,198535
1446,214085,198563
1821,214140,198577
1531,214201,198601
1898,214235,198613
1559,214246,198621
1929,214244,198622
1529,214272,198634
1979,214309,198639
1566,214340,198648
2029,214344,198655
1744,214355,198648
2081,214347,198649
1696,214260,198610
2129,214091,198533
1773,213832,198415
2124,213519,198271
1712,213143,198131
1959,212795,197987
1584,212536,197880
1907,212368,197827
1502,212327,197814
1878,212357,197831
1455,212440,197881
1875,212563,197926
1535,212677,197969
1897,212799,198019
1623,212944,198082
1921,213086,198145
1602,213218,198201
2014,213336,198256
1587,213428,198283
1901,213514,198339
1632,213629,198367
1919,213748,198432
1591,213876,198483
1934,213974,198521
1627,214069,198570
2043,214133,198600
1709,214157,198617
2031,214178,198636
1695,214180,198634
1997,214161,198613
1648,214115,198582
1952,214049,198550
1650,214022,198543
1940,213972,198520
1643,213957,198511
1981,213924,198491
1657,213910,198483
2011,213914,198478
1796,213900,198477
2459,213936,198488
2478,213950,198486
2179,213974,198509
1531,214010,198524
1917,214056,198542
1610,214097,198567
1890,214147,198581
1673,214198,198613
1887,214244,198632
1693,214278,198634
1872,214290,198653
1750,214334,198663
1947,214346,198666
1760,214388,198679
2011,214433,198706
1779,214458,198705
1995,214470,198714
1823,214478,198704
2042,214471,198691
1994,214428,198682
2035,214350,198631
1904,214145,198558
2099,213833,198404
1907,213471,198245
2011,213082,198090
1826,212746,197941
1813,212510,197848
1696,212397,197805
1693,212373,197806
1569,212421,197830
1616,212506,197871
1607,212633,197925
1703,212777,197989
1684,212929,198043
1655,213064,198105
1744,213188,198135
1698,213255,198173
1648,213332,198201
1719,213397,198217
1666,213460,198245
1679,213516,198257
1731,213583,198290
1623,213645,198292
1755,213672,198306
1661,213690,198294
1727,213715,198313
1712,213724,198314
1763,213723,198317
1710,213735,198318
1811,213700,198302
1741,213671,198288
1827,213638,198272
1842,213621,198255
1847,213610,198258
1600,213590,198239
1822,213587,198245
1617,213586,198242
1727,213614,198249
1664,213621,198260
1777,213640,198268
1653,213645,198264
1819,213693,198284
1683,213751,198304
2454,213816,198335
2356,213873,198357
1970,213911,198379
1493,213927,198370
1776,213958,198392
1594,213978,198392
1775,213993,198404
1535,214031,198410
1731,214066,198435
1565,214088,198441
1877,214123,198455
1562,214138,198463
1902,214177,198471
1707,214179,198471
1968,214197,198473
1769,214196,198471
2037,214195,198457
1728,214163,198434
2081,214116,198395
1799,214021,198341
2085,213840,198260
1798,213567,198145
2035,213183,197976
1718,212754,197805
1989,212369,197661
1616,212091,197557
1835,211928,197506
1408,211872,197494
1813,211919,197545
1367,212037,197604
1696,212203,197671
1361,212372,197750
1665,212535,197815
1360,212672,197866
1671,212800,197901
1312,212870,197928
1744,212946,197949
1354,213009,197967
1666,213089,197989
1411,213172,198039
1722,213246,198052
1301,213317,198069
1725,213369,198075
1394,213399,198095
1712,213473,198126
1297,213515,198143
1678,213565,198172
1298,213562,198173
1689,213569,198185
1367,213548,198164
1740,213530,198158
1326,213502,198152
1746,213489,198149
1383,213482,198143
1776,213493,198144
1440,213509,198150
1870,213562,198168
1371,213607,198213
1789,213674,198246
1370,213723,198274
1799,213798,198301
1299,213849,198325
1801,213892,198339
1456,213911,198340
1874,213929,198337
1558,213957,198350
2083,213992,198363
2188,214011,198371
2544,214030,198374
1564,214025,198353
1835,214023,198358
1526,214023,198354
1874,214040,198358
1559,214046,198355
1968,214060,198364
1637,214082,198368
1967,214085,198364
1772,214085,198361
2146,214097,198347
1817,214101,198359
2162,214116,198359
1840,214132,198365
2245,214151,198367
1975,214142,198358
2300,214130,198339
2001,214100,198320
2442,214006,198282
2127,213787,198160
2457,213417,197998
2096,212929,197794
2389,212403,197570
2099,211961,197380
2258,211620,197248
1995,211403,197155
2115,211287,197105
1887,211255,197097
2081,211321,197126
1791,211438,197175
2046,211585,197244
1830,211739,197309
2077,211912,197384
1827,212060,197440
2101,212197,197486
1835,212319,197523
2101,212438,197558
1872,212522,197608
2064,212613,197648
1855,212748,197701
2046,212873,197731
1895,212993,197791
1997,213117,197835
1855,213215,197883
2036,213281,197920
1854,213324,197940
1978,213366,197951
1875,213360,197953
2002,213359,197952
1840,213367,197966
1961,213375,197964
1797,213409,197987
1998,213402,197984
1821,213405,197982
1856,213415,198005
1787,213424,198005
1774,213449,198003
1733,213460,198015
1774,213480,197997
1675,213500,198019
1819,213532,198028
1729,213566,198048
1818,213601,198064
2352,213635,198075
2400,213672,198087
1893,213709,198105
1603,213742,198104
1711,213759,198118
1705,213779,198121
1669,213802,198127
1615,213822,198136
1730,213858,198150
1701,213870,198156
1750,213893,198162
1740,213900,198167
1790,213929,198190
1705,213954,198181
1872,213987,198209
1704,213998,198218
1861,214020,198230
1823,214031,198222
1991,214023,198217
1936,213990,198183
2005,213873,198142
1889,213671,198040
2007,213381,197905
1793,212999,197748
1995,212569,197576
1698,212234,197445
1843,212025,197371
1597,211893,197327
1696,211888,197328
1470,211939,197360
1653,212040,197403
1497,212166,197450
1775,212282,197503
1609,212418,197550
1868,212531,197591
1680,212643,197636
1879,212774,197697
1584,212862,197716
1903,212934,197744
1602,213038,197773
1952,213137,197826
1639,213239,197869
1984,213354,197918
1713,213425,197963
1934,213496,197984
1570,213517,198009
1921,213563,198016
1595,213540,198018
1936,213540,197993
1600,213497,197973
1953,213448,197946
1678,213405,197926
1919,213374,197915
1637,213348,197899
2062,213339,197903
1693,213341,197900
1945,213351,197909
1585,213372,197910
1895,213408,197933
1564,213429,197939
1966,213465,197954
1597,213486,197958
1890,213529,197978
1615,213549,197986
1968,213580,197997
1863,213608,198005
2686,213635,198029
1997,213669,198040
1845,213695,198042
1509,213721,198051
1769,213706,198037
1465,213707,198046
1844,213694,198013
1481,213692,198023
1888,213711,198031
1534,213727,198023
1937,213720,198030
1594,213700,198002
2003,213661,197995
1567,213654,197973
2066,213648,197977
1697,213635,197967
2138,213641,197970
1791,213659,197962
2217,213588,197926
1777,213445,197844
2183,213135,197695
1861,212652,197485
2288,212098,197242
1899,211611,197053
2278,211214,196878
1805,210910,196760
2011,210749,196688
1616,210681,196657
1963,210729,196693
1565,210877,196767
1983,211108,196892
1535,211426,197046
1983,211752,197216
1562,212064,197339
1968,212296,197457
1583,212474,197515
1917,212585,197557
1614,212706,197588
2003,212791,197624
1603,212895,197650
1951,212972,197687
1651,213032,197693
2000,213069,197696
1681,213085,197693
1939,213106,197702
1697,213124,197710
1993,213147,197719
1605,213146,197725
1965,213144,197723
1638,213104,197719
1991,213071,197704
1681,213002,197677
1910,212929,197631
1666,212861,197592
2004,212804,197551
1809,212775,197538
2107,212756,197519
1749,212756,197526
2014,212772,197529
1798,212809,197536
2019,212845,197546
1803,212881,197557
2130,212915,197564
1782,212977,197593
2027,213027,197622
1873,213107,197652
2208,213192,197697
2530,213280,197738
2729,213350,197782
1847,213417,197813
1902,213484,197838
1766,213540,197868
1862,213568,197882
1747,213602,197885
1891,213620,197886
1744,213636,197900
1947,213643,197876
1831,213652,197890
1943,213651,197885
1803,213656,197883
1889,213660,197872
1872,213661,197881
1931,213688,197902
1898,213709,197918
1979,213733,197919
1955,213741,197926
2071,213667,197882
1991,213491,197791
2055,213185,197669
2094,212774,197475
2042,212277,197268
2003,211855,197089
1879,211509,196961
1825,211319,196878
1778,211223,196862
1742,211263,196872
1689,211309,196897
1719,211415,196948
1693,211514,196990
1757,211642,197032
1745,211802,197096
1783,211959,197153
1745,212074,197210
1808,212210,197269
1769,212337,197320
1805,212451,197367
1786,212557,197408
1873,212660,197455
1792,212768,197493
1821,212873,197536
1706,212956,197568
1855,213016,197593
1735,213086,197621
1919,213116,197633
1787,213105,197636
1907,213102,197624
1728,213078,197616
1859,213054,197610
1775,213051,197621
1943,213042,197614
1683,213041,197608
2021,213026,197602
1817,213033,197604
1903,213058,197622
1744,213080,197625
1935,213104,197647
1680,213140,197657
1918,213158,197668
1660,213192,197666
1917,213228,197693
1703,213258,197701
1950,213297,197703
1861,213335,197702
2741,213358,197714
2427,213376,197727
2011,213409,197717
1607,213413,197730
1987,213441,197735
1584,213448,197741
1872,213498,197753
1601,213532,197765
1937,213565,197778
1625,213596,197800
1915,213633,197832
1606,213675,197836
1962,213711,197853
1619,213745,197857
2035,213767,197874
1613,213786,197876
1986,213803,197879
1783,213807,197862
2099,213797,197866
1773,213774,197838
2171,213651,197788
1811,213434,197689
2197,213115,197538
1842,212722,197361
2142,212293,197183
1786,211942,197051
2009,211700,196943
1513,211524,196871
1855,211494,196870
1439,211524,196894
1872,211607,196932
1447,211724,196980
1903,211876,197033
1562,212010,197092
1898,212152,197143
1509,212298,197200
1939,212416,197263
1507,212543,197305
1866,212656,197361
1416,212765,197395
1847,212872,197452
1520,212999,197497
1917,213114,197549
1456,213206,197598
1830,213281,197621
1488,213310,197629
1839,213326,197627
1453,213330,197632
1849,213320,197615
1530,213278,197609
1874,213266,197596
1493,213226,197592
1989,213199,197561
1567,213148,197559
1913,213116,197541
1568,213094,197536
1797,213095,197542
1527,213110,197545
1850,213123,197563
1469,213172,197573
1825,213217,197597
1456,213272,197627
1839,213304,197645
1434,213321,197650
1878,213348,197651
1695,213359,197652
2655,213373,197653
2077,213406,197656
1869,213444,197666
1473,213465,197692
1872,213479,197690
1420,213490,197698
1774,213500,197691
1535,213500,197683
1822,213498,197676
1566,213510,197675
1879,213521,197686
1493,213542,197695
1902,213572,197720
1626,213625,197734
1910,213667,197761
1706,213709,197782
2000,213735,197778
1761,213746,197773
2057,213738,197775
1773,213686,197737
2065,213531,197660
1847,213250,197539
2063,212893,197369
1943,212422,197172
2027,212000,196976
1725,211671,196860
1814,211456,196777
1613,211380,196756
1713,211393,196772
1520,211477,196827
1657,211585,196878
1564,211696,196924
1698,211840,196980
1515,211984,197034
1610,212149,197101
1642,212316,197171
1741,212464,197233
1535,212591,197284
1673,212701,197321
1584,212787,197362
1678,212889,197413
1520,213017,197458
1679,213110,197498
1638,213217,197550
1645,213273,197570
1712,213298,197587
1695,213308,197575
1712,213297,197562
1762,213248,197539
1771,213205,197534
1830,213162,197492
1734,213117,197484
1854,213095,197474
1897,213095,197485
1727,213076,197474
1751,213085,197471
1738,213092,197477
1762,213126,197469
1738,213134,197482
1773,213160,197488
1744,213184,197502
1790,213235,197522
1710,213253,197520
2137,213285,197531
2503,213304,197545
2352,213330,197541
1693,213340,197546
1773,213353,197539
1639,213385,197548
1774,213417,197558
1620,213436,197570
1840,213477,197594
1671,213532,197616
1799,213574,197638
1709,213593,197645
1847,213624,197657
1648,213654,197662
1978,213688,197664
1682,213718,197689
1830,213745,197689
1713,213749,197703
1975,213772,197711
1714,213778,197705
2009,213736,197692
1729,213591,197621
1925,213366,197518
1679,213057,197385
1921,212678,197224
1639,212280,197053
1808,211968,196943
1426,211760,196849
1614,211649,196811
1347,211656,196812
1649,211734,196856
1319,211869,196916
1702,212041,196987
1457,212212,197060
1714,212386,197130
1467,212551,197203
1840,212688,197252
1484,212803,197313
1813,212933,197354
1424,213015,197397
1840,213085,197431
1495,213138,197441
1808,213185,197445
1429,213247,197472
1765,213307,197503
1424,213354,197518
1773,213380,197535
1381,213384,197527
1806,213344,197517
1555,213304,197488
1808,213251,197473
1517,213182,197421
1933,213128,197404
1439,213098,197382
1867,213060,197366
1407,213029,197352
1862,212998,197349
1489,213004,197342
1829,213019,197357
1531,213054,197367
1919,213089,197365
1570,213117,197383
2042,213149,197391
2206,213178,197403
2659,213217,197420
1567,213247,197432
1845,213303,197447
1463,213337,197467
1859,213377,197470
1426,213408,197503
1872,213454,197511
1433,213503,197542
1848,213540,197547
1509,213556,197552
1852,213587,197563
1498,213600,197568
1937,213618,197597
1535,213674,197606
1872,213704,197637
1535,213724,197638
1947,213748,197641
1575,213739,197630
2032,213690,197606
1680,213582,197562
2006,213414,197469
1681,213156,197370
1982,212818,197227
1621,212438,197068
1891,212132,196950
1440,211905,196873
1712,211782,196812
1351,211756,196810
1665,211798,196829
1347,211883,196863
1659,211986,196895
1457,212107,196953
1726,212244,197014
1470,212386,197069
1815,212526,197125
1535,212663,197178
1761,212780,197248
1517,212888,197296
1865,212998,197334
1523,213097,197389
1761,213192,197438
1503,213298,197491
1834,213389,197517
1513,213423,197549
1811,213435,197535
1600,213403,197525
1769,213371,197506
1649,213341,197491
1851,213300,197462
1729,213258,197442
1925,213200,197433
1706,213166,197412
1837,213133,197391
1678,213134,197385
1758,213121,197388
1660,213145,197393
1861,213169,197404
1705,213206,197422
1874,213249,197443
1827,213310,197479
1942,213376,197502
2407,213444,197533
2687,213489,197543
2006,213505,197551
1729,213532,197549
1831,213554,197565
1840,213577,197576
1739,213619,197605
1851,213674,197628
1840,213722,197652
1776,213746,197670
1846,213766,197664
1861,213792,197683
1841,213817,197690
1820,213838,197697
1854,213884,197710
1851,213899,197735
1920,213941,197742
1895,213938,197744
1923,213950,197737
1968,213909,197716
1968,213809,197658
2015,213635,197578
2046,213373,197461
2010,213009,197309
2031,212649,197169
1886,212328,197034
1855,212124,196965
1668,212027,196925
1798,211994,196924
1607,212053,196953
1809,212160,197018
1713,212292,197055
1865,212448,197139
1717,212627,197213
1866,212801,197290
1733,212916,197341
1893,213028,197369
1787,213105,197407
1904,213205,197437
1695,213280,197464
1889,213367,197518
1712,213442,197554
1790,213506,197572
1654,213535,197585
1875,213542,197576
1647,213540,197560
1884,213523,197571
1648,213514,197561
1923,213486,197554
1733,213445,197523
1855,213398,197505
1748,213345,197481
2017,213299,197462
1644,213266,197445
1878,213242,197443
1593,213247,197424
1909,213247,197439
1572,213269,197449
1941,213308,197462
1668,213358,197482
1919,213405,197521
1647,213458,197537
2185,213495,197543
2371,213547,197563
2559,213572,197570
1523,213610,197589
1857,213655,197604
1535,213687,197627
1867,213726,197655
1520,213749,197673
1847,213757,197661
1521,213767,197657
1897,213778,197653
1570,213768,197657
1880,213788,197656
1605,213803,197655
1961,213834,197669
1607,213850,197688
1936,213885,197693
1680,213901,197686
2126,213895,197691
1731,213892,197686
2177,213847,197658
1755,213706,197592
2225,213478,197493
1857,213171,197349
2220,212828,197206
1778,212482,197073
2037,212221,196960
1611,212034,196896
1909,211978,196873
1457,211969,196873
1855,211996,196875
1478,212065,196902
1859,212160,196931
1509,212286,196986
1937,212400,197022
1535,212529,197081
1939,212650,197125
1579,212734,197140
1943,212810,197176
1516,212889,197201
1983,212975,197237
1597,213072,197290
1919,213184,197349
1575,213273,197375
1942,213330,197402
1555,213363,197415
1886,213391,197426
1586,213405,197436
1985,213416,197435
1581,213386,197426
2102,213354,197411
1685,213323,197394
1891,213280,197370
1525,213236,197352
1876,213219,197334
1526,213214,197341
1877,213215,197329
1616,213228,197346
1975,213248,197346
1674,213266,197365
2062,213307,197392
2141,213374,197408
2783,213415,197437
2047,213454,197439
1759,213479,197460
1616,213510,197459
1743,213537,197473
1517,213575,197491
1833,213620,197519
1535,213647,197526
1791,213665,197523
1584,213661,197523
1781,213671,197511
1612,213675,197511
1852,213674,197513
1525,213712,197526
1818,213766,197557
1643,213800,197575
1877,213835,197595
1625,213859,197601
1865,213874,197617
1648,213845,197605
1869,213746,197556
1666,213520,197455
1755,213228,197329
1634,212899,197182
1715,212573,197045
1457,212307,196942
1523,212135,196883
1391,212072,196855
1392,212072,196855
1317,212136,196885
1523,212236,196931
1395,212351,196988
1535,212494,197038
1502,212629,197102
1471,212736,197129
1493,212838,197180
1555,212939,197206
1554,213029,197256
1495,213133,197302
1588,213223,197332
1586,213315,197368
1559,213389,197407
1535,213468,197444
1584,213536,197468
1622,213573,197494
1627,213596,197497
1662,213587,197496
1744,213567,197481
1649,213528,197466
1625,213497,197439
1563,213460,197422
1629,213444,197424
1461,213441,197419
1633,213428,197422
1510,213427,197419
1597,213448,197427
1498,213456,197429
1726,213462,197443
1723,213473,197437
2384,213498,197447
2221,213515,197452
1687,213537,197451
1458,213557,197467
1731,213600,197490
1513,213643,197499
1714,213669,197521
1533,213707,197534
1714,213742,197548
1629,213760,197563
1807,213799,197569
1574,213817,197578
1827,213819,197577
1632,213843,197580
1819,213877,197594
1691,213897,197604
1967,213908,197611
1680,213941,197608
2005,213945,197621
1831,213938,197614
2062,213850,197584
1865,213676,197496
2145,213423,197390
1798,213085,197246
2105,212747,197086
1705,212404,196953
1863,212168,196855
1535,212011,196796
1809,211965,196776
1452,211981,196792
1808,212050,196817
1425,212146,196867
1797,212255,196911
1535,212395,196948
1873,212537,197007
1584,212669,197067
1907,212794,197120
1584,212915,197167
1891,213001,197206
1680,213069,197234
1895,213140,197249
1571,213199,197272
1927,213275,197301
1618,213337,197328
2000,213387,197357
1584,213412,197381
2031,213422,197382
1739,213412,197370
2010,213390,197350
1682,213342,197327
1917,213306,197310
1561,213269,197300
1955,213249,197303
1602,213255,197304
1953,213255,197295
1565,213271,197311
1934,213279,197311
1535,213311,197311
2179,213325,197338
2230,213358,197335
2688,213379,197343
1698,213411,197361
1926,213427,197366
1571,213423,197375
1936,213464,197374
1535,213481,197377
1936,213490,197391
1575,213505,197385
1959,213534,197390
1638,213553,197409
2055,213587,197414
1663,213598,197437
2026,213627,197424
1730,213627,197437
2112,213652,197431
1745,213647,197438
2213,213664,197428
1804,213667,197424
2164,213640,197414
1821,213529,197368
2128,213323,197272
1809,213008,197123
2160,212629,196959
1777,212239,196796
2069,211925,196660
1597,211703,196569
1920,211584,196535
1554,211548,196516
1774,211563,196521
1579,211636,196546
1913,211720,196573
1566,211823,196627
1938,211975,196688
1646,212114,196744
1936,212223,196789
1626,212329,196827
1967,212408,196846
1683,212488,196884
1947,212570,196908
1725,212667,196938
2000,212743,196975
1790,212813,196995
1978,212871,197022
1847,212914,197037
2045,212945,197072
1845,212980,197070
2098,212972,197081
1872,212949,197071
1969,212916,197057
1741,212897,197053
1933,212882,197060
1765,212899,197067
1877,212921,197093
1763,212971,197115
1898,213023,197156
1680,213091,197210
1838,213188,197260
2016,213289,197317
2430,213446,197407
1823,213614,197517
1409,213745,197579
1357,213854,197656
1447,213958,197701
1142,214052,197776
1343,214212,197852
1216,214391,197993
1227,214661,198149
1198,214935,198333
1326,215104,198453
1165,215205,198495
1155,215218,198481
1174,215106,198396
1185,215019,198334
1114,214959,198269
1201,214942,198250
1299,214947,198247
1291,214927,198234
1325,214854,198190
1236,214702,198123
1313,214501,198044
1222,214288,197975
1167,214123,197951
950,214027,197919
983,213948,197908
849,213852,197856
921,213749,197807
695,213741,197797
866,213792,197834
611,213902,197881
674,214106,197998
610,214357,198144
742,214615,198310
343,214835,198427
480,215030,198551
141,215191,198635
33,215241,198649
0,215155,198558
0,215025,198445
0,214951,198375
0,214901,198317
0,214978,198385
0,215200,198524
0,215454,198723
0,215761,198945
0,216081,199205
0,216356,199412
0,216459,199489
0,216406,199451
0,216193,199255
0,215877,199032
0,215615,198834
947,215492,198779
1190,215479,198754
1931,215493,198794
2019,215482,198772
2736,215405,198706
2710,215235,198549
3729,214999,198367
4095,214747,198164
4095,214499,197955
3049,214313,197803
3463,214229,197747
2864,214265,197792
3169,214416,197907
2762,214626,198074
3033,214826,198228
2515,214971,198317
2961,214976,198326
2459,214899,198246
2826,214800,198180
2477,214746,198140
2898,214700,198111
2503,214686,198081
2906,214632,198044
2471,214567,198000
3015,214481,197930
2721,214358,197831
3106,214219,197758
2722,214055,197668
3170,213875,197600
2631,213654,197538
2960,213455,197463
2529,213216,197370
2746,213018,197288
2289,212877,197238
2619,212850,197251
2275,212919,197293
2532,213016,197353
2210,213128,197406
2651,213239,197451
2291,213312,197457
2673,213328,197428
2320,213309,197375
2751,213275,197343
2357,213304,197348
2887,213338,197363
2544,213391,197383
2871,213441,197405
2471,213481,197405
2820,213510,197399
2365,213504,197395
2768,213526,197387
2273,213521,197401
2635,213540,197432
2206,213558,197451
2542,213556,197456
2178,213543,197457
2483,213551,197477
1914,213571,197486
2187,213607,197536
1760,213668,197582
1936,213690,197615
1584,213699,197615
2061,213697,197619
1616,213695,197626
2027,213745,197668
1750,213832,197748
2077,213962,197830
2064,214078,197894
2795,214146,197930
2209,214130,197911
1930,214086,197874
1761,213993,197807
2107,213922,197746
1873,213860,197704
2211,213873,197711
1939,213895,197714
2317,213900,197731
2079,213916,197731
2320,213931,197722
2117,213934,197709
2407,213944,197705
2170,213966,197720
2521,213994,197732
2261,214033,197760
2507,214058,197769
2320,214063,197750
2522,214051,197759
2315,213987,197710
2467,213833,197624
2229,213549,197492
2416,213203,197329
2188,212823,197180
2309,212444,197017
2018,212116,196883
2064,211880,196795
1861,211789,196782
1959,211793,196788
1786,211882,196837
1937,212002,196902
1767,212146,196960
1887,212277,197014
1807,212421,197095
1936,212561,197167
1776,212694,197226
1879,212788,197264
1856,212856,197284
1850,212898,197295
1818,212937,197304
1893,212974,197296
1839,212993,197302
1907,213037,197306
1869,213073,197313
1914,213065,197296
1965,213026,197277
1866,212979,197234
2016,212896,197194
2034,212831,197140
2135,212770,197117
2073,212738,197102
2064,212745,197093
2071,212746,197121
2066,212777,197123
2099,212784,197139
2157,212808,197149
2078,212824,197138
2199,212821,197132
2032,212810,197109
2149,212838,197117
2129,212857,197119
2806,212888,197132
2736,212940,197154
2407,213006,197201
1907,213067,197229
2141,213132,197262
1958,213198,197303
2148,213258,197345
1850,213344,197385
2143,213419,197440
2000,213490,197470
2093,213551,197494
1984,213551,197490
2128,213593,197503
1866,213666,197547
2129,213719,197568
1906,213745,197584
2086,213784,197607
1920,213797,197613
2202,213792,197608
1937,213700,197554
2162,213499,197450
1936,213163,197300
2220,212742,197121
1810,212249,196913
2055,211777,196723
1725,211356,196536
1890,211047,196429
1559,210898,196359
1819,210846,196358
1391,210860,196360
1753,210908,196386
1382,211010,196437
1791,211191,196531
1447,211414,196644
1745,211615,196733
1468,211759,196782
1801,211852,196834
1424,211969,196872
1823,212079,196930
1514,212176,196945
1825,212253,196990
1456,212355,197028
1883,212493,197093
1390,212626,197161
1831,212727,197204
1495,212791,197230
1758,212814,197230
1521,212829,197247
1859,212838,197267
1442,212814,197259
1767,212782,197246
1472,212738,197229
1861,212716,197240
1427,212724,197254
1894,212741,197251
1409,212749,197255
1835,212781,197281
1425,212826,197289
1763,212865,197332
1410,212924,197361
1776,212989,197379
1392,213028,197400
1860,213058,197405
1465,213065,197390
2224,213063,197392
2195,213109,197403
2237,213147,197428
1311,213136,197387
1878,213216,197439
1463,213302,197488
1810,213367,197522
1616,213404,197525
1936,213449,197548
1616,213475,197570
2054,213495,197563
1730,213469,197542
1968,213435,197515
1683,213421,197510
2142,213434,197518
1744,213442,197504
2111,213469,197527
1840,213518,197559
2185,213543,197537
1985,213442,197486
2242,213286,197417
1928,212968,197280
2253,212446,197067
1936,211893,196826
2330,211390,196633
1872,211006,196485
2165,210745,196372
1831,210578,196308
1991,210515,196274
1686,210534,196297
1968,210621,196324
1725,210736,196382
2077,210871,196431
1808,211014,196496
2035,211155,196530
1797,211241,196579
2061,211343,196593
1860,211428,196638
2036,211516,196682
1872,211640,196734
1982,211735,196790
1786,211899,196852
2026,212064,196929
1857,212226,196993
2001,212350,197048
1819,212426,197075
1909,212479,197097
1819,212490,197096
1993,212480,197092
1758,212484,197106
1954,212502,197109
1989,212499,197127
2044,212494,197116
1958,212466,197097
2095,212441,197083
1948,212428,197080
2005,212461,197074
1870,212521,197101
1835,212577,197123
1830,212642,197158
1827,212678,197178
1781,212752,197201
1760,212856,197249
1813,212974,197313
1856,213074,197351
1950,213140,197366
2474,213165,197377
2227,213193,197371
1573,213215,197391
1676,213259,197395
1599,213287,197404
1629,213324,197416
1531,213337,197425
1579,213391,197452
1554,213449,197488
1664,213525,197540
1559,213610,197574
1676,213660,197602
1555,213679,197587
1758,213666,197590
1606,213673,197577
1799,213697,197588
1712,213711,197607
1841,213742,197613
1700,213721,197603
1872,213653,197569
1780,213446,197489
1887,213109,197341
1766,212586,197124
1906,212003,196868
1665,211468,196648
1747,211051,196480
1477,210804,196370
1600,210724,196353
1377,210763,196382
1638,210867,196433
1377,211004,196488
1616,211147,196570
1428,211283,196598
1675,211400,196639
1437,211516,196650
1811,211589,196674
1516,211664,196684
1775,211717,196700
1589,211773,196725
1831,211865,196765
1578,211998,196818
1863,212136,196882
1622,212285,196952
1873,212441,197020
1535,212597,197106
1872,212726,197163
1578,212815,197225
1919,212900,197260
1584,212934,197294
1917,212968,197324
1581,212998,197336
1994,213030,197353
1651,213034,197370
1932,213043,197365
1639,213056,197363
2032,213079,197386
1616,213126,197398
1894,213185,197426
1519,213227,197427
1877,213270,197442
1456,213297,197446
1890,213336,197458
1531,213364,197467
1936,213416,197480
1565,213451,197490
2113,213472,197505
2190,213510,197508
2433,213564,197529
1491,213623,197570
1795,213720,197617
1505,213790,197670
1823,213867,197696
1482,213943,197723
1837,213986,197756
1456,214020,197775
1851,214042,197784
1462,214049,197769
1840,214073,197789
1584,214081,197780
1931,214105,197799
1568,214135,197820
1947,214178,197841
1573,214211,197840
1602,214206,197846
1349,214186,197819
1294,214118,197783
1184,213950,197701
1062,213644,197560
876,213216,197390
861,212678,197141
643,212147,196938
592,211774,196793
470,211534,196712
769,211451,196684
494,211474,196701
816,211525,196727
553,211613,196764
685,211708,196798
598,211778,196798
743,211856,196823
531,211946,196843
678,212030,196874
559,212117,196914
720,212193,196950
554,212249,196976
699,212316,197016
657,212388,197042
816,212469,197067
578,212547,197104
797,212620,197122
607,212667,197148
831,212724,197156
671,212782,197189
885,212830,197208
756,212836,197208
957,212806,197201
726,212788,197190
976,212769,197192
724,212740,197165
1008,212718,197171
841,212718,197154
1020,212725,197154
902,212729,197146
1172,212737,197150
935,212791,197181
1104,212903,197238
851,213000,197290
1166,213105,197330
912,213162,197365
1201,213229,197388
1018,213261,197402
1307,213294,197390
1200,213319,197395
1872,213346,197390
1946,213368,197389
1669,213402,197409
1071,213429,197413
1482,213474,197448
1198,213521,197457
1363,213572,197484
1167,213595,197495
1521,213627,197505
1312,213658,197520
1535,213679,197521
1360,213696,197516
1683,213714,197545
1392,213716,197548
1757,213747,197556
1491,213766,197561
1771,213769,197553
1621,213777,197554
1899,213771,197549
1648,213741,197529
1994,213594,197456
1770,213306,197333
1989,212866,197128
