2018,0,0
2459,1844,1948
3659,1849,1937
3440,1841,1947
2014,1845,1948
1632,1841,1944
1691,1837,1945
1695,1843,1949
1517,1847,1950
1648,1841,1951
1762,1849,1939
1761,1838,1956
1762,1839,1942
1931,1849,1954
1883,1838,1950
1949,1830,1950
1901,1845,1944
2032,1842,1957
1919,1843,1946
2038,1829,1949
2027,1842,1954
2096,1836,1951
1905,1838,1949
2094,1841,1953
1878,1839,1948
1936,1840,1951
1934,1838,1954
1999,1845,1947
1798,1836,1956
2014,1838,1939
1919,1833,1952
2043,1842,1942
1895,1834,1947
2005,1842,1944
1983,1834,1960
2054,1846,1942
1987,1838,1951
2087,1838,1946
1988,1841,1953
2019,1845,1951
1966,1833,1947
2147,1849,1950
2001,1848,1954
2108,1847,1947
2032,1840,1945
2075,1841,1947
2064,1844,1947
2119,1840,1950
2102,1846,1943
2250,1841,1951
2047,1842,1947
2047,1833,1952
2002,1843,1936
2131,1832,1954
1974,1849,1937
1969,1837,1950
1999,1838,1946
1973,1829,1960
1995,1841,1944
2288,1839,1949
2464,1837,1944
4095,1839,1947
3467,1841,1955
2207,1847,1954
1724,1837,1946
1808,1830,1951
1696,1836,1947
1778,1837,1949
1773,1838,1947
1837,1838,1945
1837,1830,1959
1968,1839,1948
1931,1832,1953
1947,1845,1955
1893,1836,1959
1937,1844,1940
1983,1834,1957
2013,1847,1946
2029,1828,1954
2092,1847,1945
2029,1851,1947
1946,1843,1944
1871,1838,1949
1834,1840,1951
1846,1845,1940
1819,1833,1945
1819,1840,1943
1865,1836,1958
1760,1838,1946
1759,1831,1953
1845,1843,1952
1689,1832,1959
1845,1843,1947
1839,1840,1953
1754,1835,1949
1782,1831,1951
1777,1843,1948
1749,1838,1956
1840,1843,1952
1815,1832,1957
1848,1841,1943
1741,1840,1955
1813,1843,1948
1712,1840,1945
1738,1840,1948
1841,1839,1941
1840,1834,1954
1892,1835,1940
1967,1836,1949
1815,1840,1947
1786,1833,1958
1808,1836,1946
1865,1829,1956
1723,1845,1950
1667,1836,1956
1683,1833,1940
1808,1833,1948
1792,1840,1947
1901,1847,1960
2085,1839,1946
2591,1835,1951
3867,1845,1947
2666,1844,1948
1590,1843,1952
1609,1837,1953
1526,1844,1957
1627,1845,1943
1459,1843,1957
1671,1844,1948
1617,1838,1956
1755,1853,1953
1658,1846,1962
1839,1852,1964
1767,1848,1978
1840,1861,1967
1775,1853,1982
1879,1864,1970
1781,1855,1989
1966,1864,1990
1861,1865,1987
1901,1866,1994
1782,1868,1997
1968,1877,1997
1725,1884,1998
1779,1875,2005
1717,1871,2013
1793,1876,2011
1693,1881,1997
1746,1876,2015
1663,1885,2004
1779,1885,2017
1808,1895,2007
1843,1890,2017
1803,1897,2015
1790,1895,2017
1776,1897,2020
1791,1910,2023
1853,1905,2019
1822,1903,2031
1851,1908,2036
1773,1918,2031
1771,1915,2048
1727,1920,2049
1707,1925,2068
1942,1944,2065
1797,1938,2089
1919,1966,2085
1889,1964,2114
1935,1993,2126
1971,1993,2148
1871,2021,2152
1775,2017,2186
1751,2041,2198
1786,2081,2238
1907,2082,2256
1834,2114,2287
1747,2140,2315
1741,2163,2356
1797,2196,2392
1968,2226,2426
2343,2264,2467
3859,2310,2525
3049,2357,2598
1955,2423,2655
1470,2485,2751
1535,2576,2829
1437,2655,2939
1516,2756,3036
1584,2838,3164
1683,2970,3294
1646,3083,3449
1699,3233,3589
1674,3370,3759
1770,3535,3942
1750,3700,4144
1874,3876,4355
1791,4065,4568
1830,4259,4795
1835,4460,5025
1975,4668,5272
1891,4882,5511
1868,5089,5758
1717,5289,5993
1794,5482,6235
1703,5710,6480
1776,5949,6790
1774,6232,7115
1728,6514,7470
1775,6860,7868
1754,7247,8334
1832,7687,8849
1805,8154,9404
1723,8625,9939
1855,9084,10495
1776,9528,11013
1837,9908,11464
1763,10283,11918
1871,10693,12386
1824,11081,12877
1827,11532,13405
1775,11979,13962
1827,12391,14424
1856,12633,14726
1867,12871,15043
1767,13230,15490
1901,13741,16119
1812,14333,16862
1941,14941,17576
1847,15371,18104
2026,15726,18558
1929,16046,18961
1935,16313,19321
1762,16593,19666
1875,16900,20110
1744,17319,20631
1826,17818,21291
1650,18417,22041
1862,19028,22818
1808,19690,23595
2075,20177,24197
2234,20415,24452
3536,20383,24401
3195,20118,24091
2031,20008,24013
1616,20434,24623
1638,21516,25986
1566,22833,27572
1587,23935,28843
1534,24608,29658
1750,25088,30252
1607,25465,30726
1797,25816,31198
1655,26348,31919
1872,27087,32875
1809,28243,34378
1854,29907,36417
1863,30974,37642
1894,31341,38105
1872,31368,38143
1969,31220,38089
1795,31204,38143
1819,31133,38183
1863,31246,38430
1823,31790,39309
1726,33366,41517
1791,36167,45222
1846,39719,49724
1761,42933,53724
1778,45480,56938
1792,47323,59310
1802,48752,61177
1853,49532,62097
1739,49618,62259
1875,49919,62778
1787,51184,64666
1813,53887,68193
1881,56662,71630
1920,57973,73061
1856,57629,72526
1822,56290,70743
1815,54695,68893
1797,54129,68337
1776,54601,69127
1809,56312,71494
1866,59257,75339
1851,62556,79531
1888,65532,83177
1957,68215,86517
1966,70508,89376
1855,72699,92226
1847,75530,95869
1930,78872,100186
1782,82738,105086
1723,86136,109174
1806,88893,112601
1695,92281,116775
1827,96325,121775
1801,101218,127711
1809,107280,134977
2037,114659,143714
2839,121341,151005
4095,124256,153926
2832,124121,153523
1744,121675,150691
1589,119870,148974
1488,120634,150167
1485,122670,152696
1498,125046,155334
1648,125568,155742
1621,125141,155258
1678,125858,156417
1683,128833,159956
1710,133071,164989
1666,139197,171718
1892,146045,178784
1797,151587,183752
1855,154660,185380
1774,155021,183399
1978,152310,177254
1808,146889,167762
1913,139894,157431
1787,135579,152153
1858,134263,150663
1764,134560,150899
1808,135208,151447
1702,135555,151732
1777,135600,151632
1675,135648,151646
1831,136157,152147
1773,136981,152971
1819,138229,154260
1689,139981,156014
1811,141979,157939
1776,143801,159612
1783,145579,161317
1771,147655,163237
1902,150002,165341
1776,152090,167067
1806,153373,168068
1883,154039,168533
1895,154583,168994
1771,156099,170468
1879,158133,172082
1795,160036,173606
1872,161829,174940
1856,163206,175942
1853,164048,176588
1942,164668,177049
1890,165318,177511
1905,165907,177935
1998,166377,178238
1919,166737,178514
1947,167111,178756
1840,167700,179339
1819,169743,180926
1827,170760,181560
1802,171531,182069
1779,172324,182615
1889,173006,183040
1867,173438,183322
1900,173660,183461
2153,173843,183608
3057,174190,183852
3773,174851,184288
2471,175630,184768
1728,176126,185054
1674,176287,185177
1531,176541,185408
1623,178232,186692
1679,179421,187352
1618,180308,187945
1803,181209,188447
1687,181986,188915
1839,182865,189440
1830,184070,190182
1836,185485,191015
1840,186884,191800
1817,188038,192424
1851,189004,192958
1979,189806,193380
1859,190397,193680
1963,190863,193926
1898,191039,193992
1903,190899,193942
1830,190698,193849
1760,190576,193824
1791,190620,193864
1820,190641,193914
1712,190670,193937
1792,190669,193984
1782,190755,194041
1758,190916,194135
1725,191178,194298
1892,191640,194550
1795,192019,194741
1911,192167,194813
1775,192359,194943
1860,192687,195096
1826,193124,195341
1849,193645,195588
1858,194188,195874
1849,194648,196092
1837,194977,196277
1927,195322,196437
1747,195673,196608
1874,196180,196782
1748,196757,197102
1847,197518,197543
1806,198513,198069
1953,199173,198381
1875,199649,198619
1918,200091,198863
1952,200628,199130
2064,201219,199457
1863,201834,199769
1866,202415,200059
1833,203036,200344
1869,203582,200628
1738,204042,200832
1831,204386,200997
1761,204717,201144
1846,205055,201308
1813,205385,201469
2151,205724,201622
2512,206086,201794
4082,206474,201984
2701,206853,202163
1885,207289,202354
1474,207718,202572
1623,208185,202791
1587,208612,203006
1635,209031,203186
1724,209394,203362
1797,209744,203513
1687,210047,203656
1727,210316,203782
1737,210549,203878
1761,210755,203980
1793,210973,204073
1845,211198,204181
1883,211400,204264
1902,211532,204330
1870,211607,204349
1904,211496,204292
1774,211149,204090
1878,210541,203791
1729,209924,203484
1851,209396,203230
1680,208887,202998
1748,208401,202795
1791,207966,202583
1693,207517,202397
1730,207123,202220
1734,206794,202094
1739,206597,202006
1773,206537,201994
1801,206571,202031
1776,206699,202084
1847,206828,202161
1744,206946,202208
1829,207047,202266
1901,207137,202295
1791,207239,202363
1822,207393,202420
1835,207578,202500
1850,207751,202567
1779,207928,202660
1867,208103,202733
1827,208208,202778
1841,208274,202806
1931,208297,202798
1869,208285,202798
2005,208294,202788
1936,208331,202807
1878,208429,202852
1863,208506,202894
1860,208586,202922
1734,208636,202944
1865,208701,202955
1742,208810,203007
1871,208947,203076
1795,209091,203144
1892,209250,203213
2218,209435,203297
3119,209638,203388
3666,209811,203468
2326,209954,203544
1606,210125,203618
1586,210318,203713
1579,210526,203785
1648,210725,203879
1584,210924,203954
1694,211091,204050
1685,211248,204098
1791,211397,204178
1714,211550,204241
1810,211683,204312
1758,211800,204356
1938,211927,204415
1834,212070,204479
1991,212196,204529
1901,212280,204591
1936,212317,204569
1886,212153,204491
1926,211808,204287
1808,211316,204053
1877,210845,203816
1803,210423,203633
1831,210024,203436
1744,209670,203285
1909,209381,203148
1754,209146,203039
1822,208934,202955
1792,208777,202899
1873,208681,202870
1802,208645,202849
1881,208634,202862
1847,208675,202876
1930,208743,202920
1853,208842,202966
1859,208931,203008
1795,209073,203070
1922,209229,203155
1841,209419,203239
1873,209609,203329
1825,209795,203417
1887,209963,203496
1841,210076,203540
1903,210185,203590
1872,210273,203614
1891,210328,203640
1910,210386,203670
2058,210462,203695
1954,210527,203725
1950,210644,203769
1850,210756,203838
1840,210917,203899
1840,211058,203975
1813,211149,204023
1751,211204,204050
1827,211253,204064
1792,211331,204105
1907,211431,204158
2191,211590,204228
2862,211684,204272
3943,211756,204287
2559,211804,204329
1653,211881,204355
1503,211951,204408
1565,212053,204433
1617,212197,204510
1602,212355,204571
1643,212483,204635
1622,212606,204692
1748,212665,204726
1778,212723,204749
1669,212806,204781
1680,212896,204816
1783,212968,204872
1811,213007,204931
1826,213135,204977
1856,213205,205019
1808,213214,204998
1808,213034,204904
1694,212720,204721
1715,212254,204505
1654,211785,204283
1605,211315,204068
1584,210858,203842
1636,210397,203638
1513,209980,203448
1505,209663,203311
1471,209411,203210
1533,209238,203121
1498,209104,203092
1535,209037,203054
1446,209019,203060
1525,209062,203072
1424,209115,203132
1467,209212,203148
1520,209314,203214
1467,209412,203257
1411,209531,203318
1429,209671,203381
1378,209831,203450
1388,209968,203517
1319,210076,203570
1399,210159,203601
1273,210225,203618
1348,210251,203629
1270,210288,203639
1373,210283,203650
1279,210289,203633
1431,210297,203643
1292,210307,203635
1337,210324,203643
1135,210348,203651
1314,210353,203665
1124,210343,203650
1134,210332,203657
1040,210332,203657
1098,210397,203676
989,210456,203714
1063,210522,203742
1117,210598,203775
1530,210680,203788
2293,210760,203835
2544,210859,203873
1168,210923,203925
651,211026,203943
541,211067,203983
668,211123,203997
566,211182,204034
679,211251,204065
571,211345,204089
766,211431,204146
743,211545,204183
777,211619,204235
790,211725,204279
939,211806,204327
925,211883,204345
961,211930,204378
955,211996,204395
1023,211995,204386
955,211872,204323
1050,211629,204180
963,211291,204019
1002,210904,203824
950,210477,203631
992,210035,203405
885,209565,203203
1035,209116,202990
995,208664,202810
1008,208291,202638
978,207956,202513
1023,207721,202414
1040,207571,202351
1081,207514,202339
1078,207516,202344
1193,207541,202365
1134,207591,202375
1172,207636,202418
1166,207733,202434
1234,207823,202509
1237,207969,202557
1264,208112,202634
1258,208267,202699
1331,208406,202763
1349,208544,202826
1317,208676,202884
1357,208779,202927
1397,208853,202961
1471,208872,202974
1484,208900,202977
1530,208898,202976
1696,208892,202966
1699,208869,202964
1567,208848,202929
1575,208837,202943
1577,208859,202937
1555,208890,202955
1535,208948,202994
1580,209028,203018
1606,209130,203071
1712,209245,203107
1714,209357,203170
2157,209506,203229
2863,209643,203308
3926,209818,203360
2427,209981,203456
1697,210165,203533
1535,210334,203616
1647,210481,203665
1535,210594,203719
1745,210734,203776
1716,210866,203848
1857,211027,203927
1866,211207,203999
1920,211390,204094
1893,211584,204181
1954,211759,204267
1917,211946,204325
2143,212063,204410
2033,212203,204458
2155,212310,204512
2081,212323,204501
2226,212125,204386
2000,211725,204165
2140,211250,203935
2032,210804,203733
2071,210405,203557
2006,210012,203376
2105,209648,203206
1898,209314,203079
2012,209062,202949
1953,208864,202875
2001,208747,202829
2034,208710,202829
2095,208756,202854
2022,208836,202912
2165,208992,202979
2085,209175,203066
2159,209369,203168
2113,209576,203253
2243,209783,203347
2186,210007,203456
2241,210240,203563
2105,210458,203667
2235,210672,203776
2151,210870,203849
2240,211013,203928
2118,211152,203975
2299,211237,204022
2191,211310,204039
2373,211344,204068
2323,211380,204079
2320,211442,204100
2194,211507,204134
2288,211578,204159
2111,211644,204189
2218,211681,204191
2167,211695,204221
2205,211733,204227
2125,211765,204262
2223,211843,204282
2321,211912,204337
2653,212015,204375
4095,212101,204415
4091,212179,204450
2480,212249,204490
1954,212313,204510
1822,212341,204516
1904,212373,204534
1924,212397,204550
1987,212440,204565
1926,212475,204577
2007,212511,204608
2128,212544,204591
2109,212569,204635
2160,212643,204649
2097,212683,204678
2143,212743,204696
2159,212769,204724
2162,212797,204708
2143,212746,204685
2240,212578,204587
2253,212222,204410
2240,211787,204189
2121,211322,203971
2135,210857,203749
2087,210378,203521
2097,209872,203307
1997,209399,203076
2095,208927,202880
2063,208515,202698
2109,208172,202562
2096,207954,202471
2083,207791,202410
1949,207713,202371
2105,207669,202363
2219,207663,202369
2245,207691,202377
2115,207740,202401
2134,207816,202428
2144,207874,202481
2128,207968,202508
2042,208055,202555
2267,208167,202604
2128,208260,202647
2223,208343,202659
2123,208407,202708
2223,208483,202732
2174,208541,202750
2261,208578,202762
2190,208591,202761
2309,208564,202748
2256,208537,202721
2290,208490,202696
2062,208449,202676
2154,208398,202675
2053,208367,202644
2175,208345,202641
1935,208360,202641
2199,208377,202662
2091,208431,202674
2339,208483,202707
2581,208542,202730
4003,208605,202743
3761,208658,202785
2382,208710,202812
1750,208783,202843
1888,208865,202857
1770,208912,202894
1898,208968,202905
1745,209011,202929
1953,209081,202943
1872,209123,202974
1902,209187,202992
1925,209203,203003
2099,209241,203013
2064,209296,203046
2160,209325,203045
2065,209323,203048
2111,209324,203050
2129,209312,203027
2135,209216,202972
1968,209008,202849
2166,208632,202672
2013,208147,202429
2073,207507,202142
1946,206809,201812
1914,206085,201494
1808,205448,201196
1970,204967,200987
1855,204638,200848
1863,204434,200759
1911,204332,200727
1978,204311,200713
1932,204343,200725
1936,204409,200755
1949,204502,200813
1963,204636,200847
1897,204753,200923
2031,204904,200974
1982,205069,201067
2032,205235,201128
1959,205397,201204
1990,205543,201271
1965,205691,201333
1951,205827,201396
1939,205949,201438
2000,206053,201496
2022,206154,201528
2160,206200,201554
2027,206251,201565
2086,206278,201588
2138,206336,201586
2103,206353,201617
1979,206374,201605
2010,206403,201624
2045,206423,201618
1973,206438,201637
1968,206494,201661
1936,206576,201697
1991,206687,201752
1984,206821,201812
2160,206956,201872
2586,207056,201902
4095,207113,201928
3325,207134,201927
2083,207112,201925
1599,207097,201902
1711,207096,201904
1693,207119,201920
1744,207171,201945
1744,207258,201987
1839,207344,202003
1823,207425,202051
1935,207493,202069
1832,207531,202102
1983,207578,202105
1952,207578,202112
2074,207589,202119
1968,207611,202122
2074,207643,202130
2064,207642,202126
2098,207528,202050
1968,207246,201906
2047,206807,201691
1949,206229,201414
2029,205553,201085
1899,204834,200756
2003,204162,200462
1889,203613,200209
1923,203215,200045
1827,203024,199956
2017,202971,199957
1862,203048,199989
1933,203183,200065
1898,203325,200123
2027,203476,200186
1973,203651,200264
2064,203844,200363
1887,204043,200453
2006,204256,200548
1919,204451,200649
1988,204686,200743
1963,204905,200843
2045,205145,200943
1920,205338,201039
1949,205562,201126
1872,205746,201217
1936,205916,201286
2064,206023,201333
2101,206057,201345
2094,206064,201337
2137,206061,201343
1981,206066,201330
2020,206071,201327
1764,206071,201323
1947,206024,201318
1845,205988,201276
1913,205924,201273
1826,205859,201222
1904,205782,201202
1936,205730,201177
2319,205704,201171
3095,205680,201155
4095,205681,201148
2462,205705,201163
1774,205737,201181
1569,205788,201200
1665,205854,201224
1594,205911,201246
1627,205987,201281
1617,206059,201328
1783,206147,201346
1702,206235,201390
1819,206298,201412
1824,206366,201439
1837,206448,201477
1829,206551,201527
1869,206659,201571
1827,206760,201619
1941,206844,201659
1915,206860,201641
1884,206729,201572
1771,206481,201421
1872,206050,201235
1723,205493,200947
1731,204803,200645
1650,204129,200302
1787,203493,200034
1725,202998,199797
1679,202654,199658
1666,202435,199574
1686,202333,199528
1679,202330,199537
1698,202381,199561
1698,202477,199615
1722,202627,199666
1731,202783,199769
1710,202971,199824
1707,203127,199912
1680,203312,199982
1710,203490,200071
1727,203692,200139
1728,203873,200235
1676,204045,200302
1769,204182,200366
1717,204313,200421
1783,204417,200477
1690,204509,200506
1743,204566,200524
1815,204609,200550
1822,204648,200551
1700,204661,200566
1735,204639,200546
1616,204623,200546
1607,204637,200543
1590,204645,200555
1675,204672,200558
1535,204706,200577
1683,204765,200593
1862,204842,200637
2296,204928,200685
3567,205012,200712
3133,205068,200746
1825,205117,200767
1399,205140,200788
1183,205195,200792
1472,205257,200835
1402,205323,200859
1525,205379,200893
1412,205452,200923
1520,205523,200962
1507,205624,200991
1648,205716,201029
1494,205804,201067
1714,205893,201122
1647,205991,201167
1779,206085,201193
1714,206181,201245
1813,206234,201251
1661,206151,201224
1744,205952,201088
1589,205601,200928
1742,205143,200695
1665,204550,200419
1717,203914,200122
1578,203334,199862
1718,202820,199631
1593,202442,199456
1610,202214,199367
1572,202127,199339
1729,202150,199372
1642,202264,199425
1721,202429,199515
1648,202621,199586
1783,202847,199701
1734,203058,199794
1750,203267,199893
1666,203503,199990
1797,203696,200084
1749,203878,200178
1823,204072,200255
1711,204269,200352
1793,204498,200438
1766,204702,200552
1818,204879,200614
1776,205027,200692
1872,205133,200729
1936,205176,200747
2000,205179,200739
1904,205148,200714
1869,205074,200686
1787,204979,200637
1814,204852,200577
1676,204741,200510
1834,204620,200476
1826,204508,200416
1834,204381,200374
1809,204274,200316
2027,204186,200296
2257,204152,200252
3536,204089,200236
3623,204036,200207
2204,203977,200198
1648,203943,200180
1569,203929,200176
1648,203939,200174
1686,204002,200201
1664,204066,200237
1723,204150,200249
1733,204222,200301
1819,204342,200341
1885,204462,200405
1874,204586,200450
1891,204722,200524
1955,204833,200563
2000,204957,200616
1921,205051,200661
2055,205073,200665
2002,204992,200618
2074,204766,200478
2002,204350,200283
1947,203783,200000
1952,203103,199695
1946,202406,199357
1838,201722,199061
1889,201203,198832
1811,200837,198676
1924,200603,198576
1835,200507,198561
1883,200550,198578
1854,200659,198639
1893,200807,198727
1870,201017,198812
1921,201238,198923
1860,201470,199015
1937,201675,199118
1940,201885,199205
1962,202083,199305
1926,202321,199404
1941,202560,199515
1863,202758,199604
1968,202949,199687
1846,203126,199763
1988,203286,199826
1889,203407,199893
1999,203517,199930
1943,203555,199956
2032,203576,199958
2000,203590,199966
2173,203570,199936
1951,203533,199934
2007,203530,199929
1985,203542,199936
1989,203553,199950
1871,203591,199967
1987,203635,200003
1905,203688,200006
1946,203739,200039
1872,203813,200070
2207,203896,200121
2453,204003,200160
4095,204129,200222
3337,204263,200284
2166,204370,200334
1618,204427,200353
1670,204456,200372
1632,204488,200387
1681,204510,200396
1654,204528,200416
1799,204571,200408
1776,204602,200436
1876,204662,200442
1739,204705,200480
1813,204757,200501
1827,204771,200513
1905,204781,200508
1862,204807,200513
1936,204825,200519
1875,204821,200510
2026,204698,200436
1910,204439,200286
1911,203989,200087
1804,203421,199798
1890,202705,199473
1806,201964,199118
1872,201245,198802
1807,200638,198523
1877,200163,198328
1807,199848,198204
1838,199673,198130
1791,199611,198112
1902,199622,198114
1868,199687,198167
1902,199825,198210
1909,199982,198311
1921,200198,198390
1887,200381,198488
1914,200571,198558
1953,200723,198636
1888,200900,198699
1911,201062,198775
1959,201224,198849
1968,201387,198922
1968,201539,198999
1895,201678,199048
1926,201784,199109
1943,201893,199144
1978,201984,199194
1971,202062,199208
1993,202093,199235
2015,202114,199224
2038,202105,199229
2079,202108,199236
2064,202135,199245
2027,202178,199266
1963,202237,199290
1957,202315,199327
1872,202386,199355
1949,202454,199396
1890,202551,199434
1953,202649,199495
1984,202727,199515
2222,202767,199540
2636,202811,199554
4095,202856,199589
3152,202939,199614
1973,203026,199664
1612,203135,199711
1749,203226,199755
1634,203336,199799
1697,203436,199841
1698,203538,199885
1796,203637,199931
1785,203747,199983
1855,203871,200031
1825,203997,200095
1963,204101,200132
1882,204171,200181
1954,204249,200201
1934,204293,200231
2002,204356,200248
1977,204316,200236
2029,204172,200147
1936,203866,199994
1958,203430,199773
1872,202862,199498
1963,202202,199204
1856,201491,198876
1892,200785,198582
1794,200212,198315
1875,199815,198162
1776,199620,198078
1842,199584,198077
1811,199643,198100
1909,199763,198175
1837,199927,198253
2026,200140,198339
1877,200315,198445
1929,200483,198496
1872,200633,198586
2000,200795,198646
1874,200979,198741
1963,201203,198821
1840,201410,198931
1951,201628,199026
1894,201825,199121
1931,202014,199183
1855,202162,199268
1973,202307,199325
1891,202447,199370
1936,202594,199450
1906,202754,199517
2037,202904,199593
2042,203038,199645
2066,203119,199676
1952,203162,199694
1984,203174,199696
1871,203203,199711
1889,203227,199716
1802,203262,199746
1930,203330,199770
1810,203389,199819
1927,203477,199838
1829,203569,199876
2211,203657,199913
2709,203716,199961
4095,203791,199994
2943,203856,200023
1840,203955,200068
1615,204065,200123
1648,204179,200170
1692,204302,200230
1680,204398,200267
1758,204497,200326
1775,204592,200371
1819,204680,200397
1855,204757,200443
1874,204830,200465
1899,204899,200517
1909,204988,200537
1985,205068,200591
1936,205147,200607
1989,205174,200615
1981,205129,200586
2039,204979,200505
2005,204672,200342
1970,204213,200122
1936,203647,199867
1885,202997,199562
1904,202296,199249
1808,201609,198937
1891,201039,198691
1847,200641,198529
1894,200394,198427
1860,200307,198392
1920,200325,198416
1869,200413,198472
1936,200535,198535
1925,200649,198601
1922,200705,198622
1921,200741,198645
1968,200784,198662
1927,200842,198699
2003,200970,198754
1902,201109,198837
1966,201285,198898
1899,201413,198964
1987,201504,199005
1890,201570,199040
1927,201668,199077
1877,201740,199106
1959,201773,199106
1867,201807,199136
1953,201843,199144
1894,201851,199134
2069,201825,199140
1949,201817,199116
2123,201792,199134
1967,201805,199116
1978,201820,199146
1839,201856,199157
1907,201885,199171
1838,201953,199197
1897,202051,199248
1844,202159,199302
1845,202286,199351
1829,202378,199401
2087,202457,199426
2289,202523,199467
3667,202631,199498
3610,202734,199567
2325,202843,199604
1578,202917,199643
1555,203015,199677
1500,203090,199726
1625,203198,199764
1587,203281,199806
1680,203359,199842
1681,203446,199877
1808,203548,199931
1774,203664,199978
1839,203816,200063
1785,203973,200119
1926,204091,200184
1868,204201,200232
1956,204319,200293
1904,204412,200307
1983,204381,200296
1904,204228,200201
1971,203937,200054
1870,203497,199832
1906,202925,199572
1744,202270,199285
1826,201639,198997
1729,201063,198761
1805,200605,198562
1754,200304,198454
1858,200148,198394
1758,200090,198388
1787,200136,198404
1735,200231,198479
1840,200411,198560
1791,200590,198639
1851,200739,198712
1840,200913,198793
1886,201087,198880
1791,201275,198947
1840,201472,199063
1829,201681,199132
1823,201885,199239
1776,202108,199324
1808,202294,199415
1842,202443,199486
1824,202568,199539
1808,202635,199571
1804,202678,199591
1789,202716,199610
1852,202757,199625
1795,202795,199648
1866,202835,199652
1935,202862,199673
1904,202882,199668
1997,202903,199702
2014,202914,199693
1905,202944,199725
1876,203000,199734
1835,203076,199780
1806,203167,199815
1792,203271,199874
1767,203396,199914
1837,203493,199960
1803,203582,200006
1867,203676,200049
2074,203758,200091
2640,203852,200109
4095,203912,200158
3097,203988,200186
1897,204089,200244
1535,204202,200282
1506,204316,200351
1535,204443,200406
1520,204566,200473
1584,204714,200523
1613,204854,200595
1697,205022,200675
1712,205240,200773
1769,205465,200880
1751,205690,200983
1825,205901,201071
1789,206084,201147
1897,206225,201220
1869,206342,201270
1968,206389,201290
1823,206332,201229
1935,206102,201133
1847,205762,200955
1861,205211,200703
1761,204576,200390
1827,203857,200072
1739,203127,199754
1805,202468,199475
1705,201944,199255
1771,201574,199118
1735,201368,199050
1812,201295,199019
1724,201293,199032
1850,201352,199052
1793,201433,199123
1872,201582,199174
1776,201704,199244
1919,201867,199305
1790,201977,199353
1911,202093,199410
1805,202242,199484
1896,202411,199558
1763,202581,199635
1871,202687,199681
1790,202771,199703
1856,202834,199760
1840,202915,199773
1862,202976,199814
1840,203069,199852
1947,203116,199874
1856,203147,199874
1995,203141,199872
1930,203146,199883
1943,203169,199886
1826,203198,199905
1856,203263,199926
1723,203335,199968
1809,203453,199999
1737,203548,200060
1789,203699,200122
1728,203832,200193
1830,203989,200266
1982,204091,200310
2375,204180,200350
3773,204298,200407
3413,204420,200465
2090,204560,200522
1584,204690,200604
1469,204858,200647
1584,204980,200720
1554,205122,200769
1609,205239,200839
1584,205361,200880
1663,205458,200939
1674,205589,201002
1751,205702,201054
1711,205822,201095
1778,205934,201158
1840,206055,201216
1905,206190,201261
1878,206317,201328
0,206428,201357
0,206420,201354
0,206269,201278
0,205952,201121
0,205490,200884
0,204877,200612
0,204197,200303
0,203523,199998
0,202885,199723
0,202372,199523
0,202011,199373
0,201815,199303
0,201766,199282
0,201823,199309
0,201958,199380
0,202128,199479
0,202336,199581
0,202569,199659
0,202776,199767
0,202935,199828
0,203056,199896
0,203171,199954
0,203299,200007
0,203448,200069
0,203557,200121
0,203650,200165
0,203751,200203
0,203852,200248
0,203908,200273
0,203951,200288
0,203962,200289
0,203952,200292
0,203950,200269
0,203927,200265
0,203913,200260
0,203928,200274
0,203945,200273
0,203986,200291
0,204010,200299
0,204029,200323
0,204064,200336
0,204122,200359
0,204215,200401
0,204317,200456
0,204436,200513
0,204578,200575
0,204698,200623
0,204830,200685
0,204941,200729
0,205030,200783
0,205134,200821
0,205223,200851
0,205302,200906
0,205369,200937
0,205455,200968
0,205558,201016
0,205681,201068
0,205805,201126
0,205922,201191
0,206042,201252
0,206152,201282
0,206259,201328
0,206322,201351
0,206249,201299
0,206010,201194
0,205632,200991
0,205109,200745
0,204491,200458
0,203844,200176
0,203247,199911
0,202760,199711
0,202462,199584
0,202306,199536
0,202286,199539
0,202362,199581
0,202499,199642
0,202675,199735
0,202868,199826
0,203079,199918
0,203285,200018
0,203514,200111
0,203737,200210
0,203945,200311
0,204156,200416
0,204385,200511
0,204595,200602
0,204794,200685
0,205025,200786
0,205234,200897
0,205423,200976
0,205580,201038
0,205678,201078
0,205756,201115
0,205823,201151
0,205885,201177
0,205974,201203
0,206037,201250
0,206110,201281
0,206211,201318
0,206342,201381
0,206480,201458
0,206656,201539
0,206833,201621
0,207022,201706
0,207199,201780
0,207372,201863
0,207548,201937
0,207686,202010
0,207813,202068
0,207949,202116
0,208087,202180
0,208228,202247
0,208366,202309
0,208486,202364
0,208581,202402
0,208668,202440
0,208744,202488
0,208833,202512
0,208932,202551
0,209042,202618
0,209119,202655
114,209213,202694
463,209300,202716
586,209363,202744
688,209385,202734
787,209278,202689
895,209056,202554
955,208694,202379
1047,208238,202151
1107,207664,201907
1174,207063,201606
1232,206465,201340
1282,205924,201090
1329,205500,200914
1514,205199,200796
2111,205014,200730
2898,204952,200706
3536,204973,200715
4095,205071,200775
4095,205204,200840
4095,205363,200922
4095,205521,200987
4095,205673,201046
4095,205829,201124
4095,206030,201216
4095,206276,201326
4095,206509,201436
4095,206722,201532
4095,206894,201607
4095,207060,201681
4095,207192,201738
4095,207294,201790
4095,207388,201818
4095,207445,201856
4095,207511,201867
4095,207536,201892
4095,207589,201901
4095,207626,201912
4095,207678,201941
4095,207744,201978
4095,207798,201996
4095,207841,202025
4095,207886,202048
4095,207940,202054
3856,208010,202104
3465,208129,202149
3536,208224,202204
3280,208351,202239
3280,208444,202297
3259,208559,202341
3893,208651,202389
4095,208757,202433
4095,208862,202476
3327,208983,202530
2471,209060,202567
2219,209169,202615
2294,209284,202664
2177,209385,202712
2223,209471,202751
2127,209549,202804
2202,209647,202832
2071,209728,202881
2146,209842,202931
2102,209936,202981
2103,210019,203006
2003,210080,203034
2035,210141,203063
1977,210185,203082
2095,210185,203087
1904,210084,203010
1964,209865,202893
1850,209520,202724
1840,209085,202529
1744,208594,202274
1764,207985,202007
1627,207378,201717
1637,206777,201454
1535,206293,201225
1579,205905,201064
1586,205643,200965
1566,205506,200919
1505,205462,200910
1583,205494,200952
1480,205576,200990
1565,205702,201041
1535,205845,201121
1570,205992,201179
1559,206145,201259
1511,206297,201328
1510,206480,201416
1511,206683,201502
1469,206875,201591
1461,207049,201676
1471,207197,201738
1433,207326,201789
1487,207403,201823
1443,207460,201858
1478,207505,201866
1483,207519,201886
1517,207537,201874
1495,207559,201877
1494,207550,201876
1647,207512,201864
1600,207477,201847
1585,207438,201837
1535,207406,201816
1463,207399,201816
1471,207408,201825
1394,207478,201841
1486,207526,201872
1408,207581,201892
1475,207621,201922
1425,207696,201948
1625,207770,201998
1922,207883,202030
3149,207967,202082
3021,208071,202120
1877,208149,202149
1185,208231,202189
1147,208334,202238
1191,208431,202287
1182,208561,202330
1223,208648,202382
1409,208756,202417
1293,208840,202456
1434,208909,202481
1450,208972,202528
1503,209096,202547
1411,209194,202614
1569,209317,202656
1563,209433,202707
1696,209531,202746
1612,209577,202770
1713,209549,202749
1619,209414,202651
1650,209132,202525
1525,208777,202334
1659,208302,202121
1507,207767,201870
1495,207167,201601
1429,206605,201341
1571,206087,201125
1527,205682,200934
1501,205424,200853
1474,205332,200826
1535,205390,200853
1518,205536,200931
1535,205723,201029
1571,205914,201117
1685,206113,201181
1567,206270,201286
1648,206464,201349
1599,206638,201441
1712,206855,201523
1619,207064,201639
1668,207290,201739
1530,207473,201810
1659,207642,201902
1598,207795,201959
1693,207906,202014
1659,208013,202058
1667,208089,202093
1569,208156,202098
1685,208203,202139
1674,208275,202153
1789,208336,202191
1719,208414,202219
1895,208484,202265
1776,208555,202280
1767,208612,202301
1717,208668,202332
1690,208725,202361
1631,208797,202404
1687,208894,202431
1649,208980,202489
1726,209077,202516
1617,209175,202565
1824,209278,202612
2058,209398,202662
3109,209510,202717
3547,209604,202761
2377,209713,202801
1455,209804,202849
1328,209900,202889
1344,209990,202917
1378,210086,202987
1398,210202,203030
1523,210280,203067
1511,210378,203104
1501,210449,203144
1600,210538,203169
1628,210609,203212
1666,210683,203242
1673,210756,203282
1680,210823,203302
1714,210864,203324
1741,210858,203310
1721,210765,203244
1776,210519,203137
1738,210197,202957
1712,209758,202760
1725,209243,202503
1626,208623,202208
1646,207995,201907
1626,207367,201629
1619,206824,201393
1671,206372,201199
1582,206051,201072
1631,205877,201009
1648,205805,200991
1682,205844,201006
1671,205947,201078
1722,206111,201156
1702,206304,201255
1725,206506,201330
1744,206682,201427
1807,206878,201495
1669,207056,201590
1743,207237,201666
1695,207411,201760
1755,207579,201829
1710,207746,201893
1799,207889,201963
1711,208049,202024
1758,208157,202098
1681,208254,202107
1763,208310,202147
1683,208368,202154
1749,208376,202162
1717,208381,202157
1865,208353,202166
1764,208365,202158
1905,208369,202166
1872,208395,202166
1954,208417,202187
1741,208452,202192
1808,208486,202220
1626,208550,202247
1755,208606,202282
1684,208694,202314
1780,208791,202344
1712,208887,202407
1751,209006,202439
1837,209098,202505
2192,209205,202532
3103,209300,202582
3878,209381,202614
2336,209462,202650
1535,209548,202694
1367,209638,202728
1584,209723,202769
1421,209821,202795
1520,209907,202865
1481,210020,202893
1680,210060,202924
1556,210136,202936
1664,210218,202990
1680,210317,203023
1757,210367,203050
1795,210453,203084
1837,210554,203124
1812,210654,203174
1856,210731,203203
1831,210683,203168
1862,210480,203049
1806,210153,202887
1856,209739,202670
1808,209218,202431
1791,208632,202145
1721,208000,201875
1735,207381,201581
1633,206806,201340
1762,206380,201146
1729,206094,201036
1694,205982,200987
1707,205977,201019
1748,206077,201065
1726,206209,201133
1776,206363,201199
1792,206513,201280
1812,206689,201358
1778,206889,201443
1823,207085,201545
1794,207297,201626
1821,207489,201735
1809,207716,201830
1803,207921,201929
1742,208119,201999
1852,208256,202079
1771,208385,202116
1787,208477,202156
1835,208511,202168
1791,208510,202167
1808,208518,202166
1822,208525,202163
1807,208542,202171
1812,208538,202164
1903,208561,202176
1902,208608,202194
1895,208631,202210
1979,208697,202234
2062,208744,202263
1939,208803,202287
1875,208862,202332
1865,208933,202357
1872,209003,202381
1830,209071,202413
1838,209123,202437
1887,209181,202456
1869,209259,202480
1867,209342,202542
2129,209457,202572
2519,209546,202628
4095,209643,202664
3379,209715,202699
2055,209775,202714
1456,209807,202736
1535,209863,202746
1575,209894,202769
1671,209920,202774
1615,209942,202779
1734,209939,202790
1734,209962,202783
1856,209973,202800
1776,210012,202812
1855,210037,202833
1877,210051,202817
1882,210039,202825
1898,210061,202819
2003,210069,202832
1910,210039,202807
1991,209909,202733
1909,209624,202583
1994,209230,202362
1872,208659,202107
1922,207992,201782
1808,207211,201432
1856,206429,201071
1809,205707,200746
1809,205178,200521
1763,204834,200390
1856,204696,200332
1757,204694,200335
1851,204750,200377
1775,204853,200422
1835,205020,200511
1773,205256,200618
1921,205515,200740
1825,205779,200848
1914,206008,200960
1825,206234,201046
1904,206434,201163
1855,206665,201246
1940,206863,201351
1852,207058,201434
1920,207230,201515
1823,207370,201570
1951,207492,201630
1867,207563,201653
1885,207605,201675
1855,207616,201672
1936,207625,201668
1881,207645,201676
1971,207647,201667
1936,207673,201694
2059,207722,201705
1993,207771,201752
2013,207867,201781
1882,207941,201808
1961,208030,201848
1827,208102,201887
1885,208182,201923
1779,208277,201964
1866,208370,202004
1854,208479,202065
1872,208598,202108
2012,208724,202165
2463,208867,202232
3953,209011,202295
3646,209137,202368
2205,209249,202400
1561,209328,202447
1438,209401,202477
1616,209477,202499
1562,209585,202544
1653,209699,202601
1648,209834,202650
1757,209923,202714
1792,210020,202752
1823,210127,202788
1751,210231,202826
1842,210321,202881
1840,210425,202920
1931,210559,202975
1934,210652,203014
1921,210698,203027
1968,210597,202977
1978,210339,202820
1918,209927,202631
1898,209472,202390
1854,208937,202146
1807,208377,201858
1819,207782,201592
1809,207220,201345
1787,206704,201124
1762,206284,200935
1728,205979,200821
1741,205825,200761
1853,205797,200762
1843,205878,200803
1824,206041,200874
1758,206206,200969
1813,206422,201053
1851,206606,201153
1903,206774,201218
1878,206930,201308
1890,207134,201378
1842,207305,201471
1854,207518,201568
1841,207678,201648
1869,207842,201714
1902,207964,201770
1872,208081,201816
1847,208188,201858
1847,208276,201888
1822,208367,201918
1895,208412,201962
1835,208468,201964
1903,208506,201986
1897,208537,202001
1955,208550,202018
1949,208583,202024
2118,208630,202040
1970,208684,202066
1973,208745,202106
1874,208833,202137
1840,208938,202189
1808,209058,202254
1895,209187,202307
1821,209320,202382
1878,209475,202431
1777,209613,202501
1983,209767,202565
2175,209906,202647
3207,210058,202693
4095,210187,202754
2597,210291,202806
1647,210422,202868
1475,210547,202920
1469,210665,202979
1618,210786,203028
1556,210895,203081
1699,210974,203116
1617,211053,203154
1758,211152,203201
1706,211241,203241
1765,211299,203277
1777,211384,203311
1904,211445,203341
1811,211523,203374
1946,211590,203410
1867,211662,203422
1991,211629,203406
1919,211404,203264
1944,210987,203075
1840,210469,202804
1907,209895,202537
1781,209301,202242
1843,208685,201951
1753,208089,201693
1827,207545,201448
1730,207104,201254
1783,206743,201099
1744,206508,201007
1813,206388,200968
1731,206363,200961
1822,206410,200987
1766,206487,201054
1856,206626,201107
1841,206790,201204
1841,206964,201255
1847,207087,201332
1872,207238,201392
1834,207371,201460
1889,207541,201532
1828,207706,201622
1861,207899,201699
1808,208048,201784
1904,208189,201821
1838,208241,201870
1893,208300,201877
1786,208339,201888
1840,208345,201897
1854,208360,201897
1907,208356,201902
1918,208387,201897
1904,208406,201921
1972,208445,201925
2002,208463,201946
1907,208479,201945
1900,208491,201963
1808,208536,201967
1808,208566,202011
1778,208627,202022
1843,208645,202034
1842,208663,202046
1717,208675,202054
1824,208693,202051
2170,208719,202061
2815,208751,202079
4095,208810,202111
2890,208892,202142
1807,208983,202185
1466,209056,202235
1456,209152,202252
1504,209210,202292
1560,209274,202309
1633,209317,202326
1605,209389,202351
1735,209468,202400
1715,209591,202443
1790,209718,202512
1751,209857,202571
1828,209988,202633
1847,210103,202692
1915,210229,202736
1807,210353,202790
1955,210405,202807
1919,210305,202745
1947,210061,202596
1840,209673,202410
1871,209228,202176
1843,208714,201937
1852,208172,201678
1728,207611,201421
1859,207072,201192
1712,206613,200980
1739,206258,200836
1731,206055,200750
1760,205999,200755
1787,206076,200776
1842,206187,200855
1776,206358,200912
1891,206537,201016
1828,206736,201096
1861,206904,201188
1776,207070,201255
1920,207239,201343
1754,207387,201425
1862,207542,201478
1842,207679,201550
1909,207807,201608
1819,207898,201659
1808,207983,201669
1806,208037,201702
1843,208090,201711
1787,208094,201714
1903,208077,201698
1851,208034,201688
1945,207968,201621
1975,207823,201568
2010,207661,201486
1858,207474,201405
1882,207279,201311
1729,207116,201234
1805,206949,201177
1749,206806,201100
1811,206694,201063
1696,206606,201021
1915,206551,200991
1805,206528,200973
2113,206492,200956
2679,206467,200952
4095,206468,200951
2846,206494,200955
1755,206526,200977
1321,206569,200989
1511,206603,201005
1490,206656,201028
1603,206710,201040
1535,206787,201098
1697,206896,201121
1661,206993,201172
1744,207095,201215
1680,207196,201269
1808,207316,201324
1809,207443,201380
1852,207532,201417
1790,207638,201461
1869,207726,201508
1838,207756,201502
1922,207654,201440
1866,207420,201292
1923,207026,201115
1833,206500,200853
1842,205830,200538
1698,205125,200199
1794,204459,199902
1712,203908,199639
1763,203482,199452
1650,203194,199323
1744,203067,199280
1753,203022,199259
1781,203081,199283
1744,203148,199347
1801,203258,199386
1754,203330,199441
1837,203468,199471
1758,203580,199543
1825,203737,199588
1820,203864,199665
1804,204059,199741
1810,204259,199838
1840,204472,199939
1811,204659,200022
1818,204837,200099
1821,204968,200147
1853,205026,200183
1776,205014,200165
1811,204958,200159
1904,204915,200100
1889,204846,200076
1955,204811,200057
2000,204787,200053
1904,204747,200031
1859,204718,200011
1838,204690,200011
1788,204680,199987
1764,204685,200009
1779,204741,200016
1759,204807,200052
1776,204903,200092
1840,204984,200141
1965,205087,200170
2374,205178,200222
3728,205278,200264
3502,205353,200296
2067,205445,200336
1477,205539,200380
1437,205615,200417
1579,205719,200467
1488,205821,200513
1626,205937,200563
1587,206051,200621
1733,206147,200655
1665,206250,200722
1748,206374,200767
1717,206475,200822
1840,206600,200864
1813,206728,200923
1862,206847,200983
1869,206970,201032
1936,207035,201052
1842,206973,201017
1943,206780,200897
1869,206406,200702
1915,205874,200438
1787,205222,200119
1827,204508,199794
1711,203813,199461
1782,203242,199204
1695,202810,199013
1783,202505,198887
1695,202366,198830
1776,202308,198802
1708,202341,198838
1820,202428,198862
1711,202534,198940
1877,202690,199002
1746,202837,199077
1857,203010,199151
1754,203161,199231
1821,203323,199288
1792,203473,199380
1875,203643,199437
1777,203776,199510
1878,203934,199577
1745,204072,199638
1904,204192,199686
1744,204304,199732
1879,204372,199773
1759,204454,199801
1883,204464,199811
1878,204487,199807
1938,204471,199804
1859,204489,199803
2015,204480,199800
1938,204507,199803
1949,204508,199816
1824,204534,199822
1853,204553,199836
1781,204601,199851
1840,204657,199872
1775,204721,199924
1805,204818,199949
1813,204893,199998
1945,204986,200029
2240,205062,200069
3273,205158,200098
3792,205251,200155
2361,205354,200205
1525,205469,200252
1445,205571,200292
1477,205691,200337
1614,205802,200414
1603,205919,200456
1637,206013,200512
1667,206130,200556
1695,206227,200604
1737,206349,200660
1751,206449,200724
1790,206535,200749
1809,206582,200766
1873,206616,200779
1903,206632,200795
1856,206666,200808
1859,206631,200772
1955,206446,200677
1931,206082,200463
1855,205550,200213
1826,204880,199881
1779,204114,199525
1763,203328,199152
1821,202609,198840
1746,202058,198577
1776,201658,198404
1809,201412,198303
1758,201301,198261
1778,201317,198276
1819,201406,198323
1778,201544,198388
1840,201713,198469
1837,201891,198558
1903,202070,198629
1873,202250,198713
1883,202454,198802
1779,202707,198941
1843,202971,199068
1828,203237,199179
1907,203476,199279
1773,203682,199385
1882,203865,199470
1857,204035,199533
1901,204168,199610
1808,204302,199650
1941,204353,199685
1903,204378,199683
1987,204382,199681
1967,204376,199671
1998,204383,199679
1888,204390,199678
1877,204403,199680
1742,204457,199695
1851,204526,199745
1786,204621,199789
1869,204714,199829
1771,204819,199881
1845,204932,199925
1984,205066,200013
2501,205242,200088
3984,205468,200187
3295,205699,200302
1912,205943,200422
1568,206160,200518
1433,206355,200602
1590,206542,200677
1483,206692,200763
1662,206849,200831
1600,207024,200902
1714,207187,200992
1726,207369,201063
1767,207525,201144
1729,207683,201199
1855,207805,201266
1813,207915,201305
1931,208018,201365
1840,208136,201413
1943,208202,201437
1881,208127,201374
1913,207876,201227
1851,207469,201031
1889,206940,200752
1770,206303,200456
1815,205601,200124
1763,204849,199786
1826,204212,199484
1767,203716,199267
1814,203402,199142
1686,203274,199093
1836,203272,199096
1771,203319,199120
1847,203402,199182
1766,203529,199228
1884,203655,199307
1845,203832,199383
1840,204026,199483
1770,204213,199558
1911,204370,199648
1822,204547,199717
1866,204700,199807
1827,204868,199875
1881,205021,199967
1803,205192,200035
1822,205336,200090
1802,205444,200151
1893,205549,200173
1775,205590,200209
1945,205623,200201
1858,205593,200204
1978,205566,200179
1968,205506,200156
1872,205469,200145
1796,205439,200127
1818,205437,200115
1751,205455,200129
1747,205494,200154
1810,205552,200172
1833,205619,200219
1744,205713,200252
1728,205794,200303
1953,205906,200346
2464,205979,200383
3979,206077,200419
3186,206178,200481
1927,206290,200520
1424,206394,200573
1488,206517,200636
1456,206633,200680
1535,206723,200738
1584,206800,200758
1642,206853,200787
1636,206927,200815
1685,206988,200864
1698,207084,200891
1755,207160,200944
1731,207271,200988
1815,207347,201028
1745,207440,201069
1817,207547,201112
1814,207593,201121
1900,207489,201058
1805,207212,200882
1798,206769,200658
1735,206204,200382
1772,205540,200062
1691,204808,199716
1698,204106,199382
1663,203501,199112
1659,203080,198940
1616,202837,198826
1699,202719,198773
1585,202681,198767
1733,202732,198814
1643,202837,198853
1733,202981,198939
1689,203151,199006
1770,203315,199091
1718,203494,199171
1726,203651,199257
1679,203830,199328
1746,203986,199413
1682,204181,199499
1744,204341,199592
1670,204495,199660
1779,204643,199722
1655,204758,199774
1777,204841,199814
1686,204895,199843
1691,204941,199844
1669,204949,199868
1739,204960,199851
1671,204936,199849
1834,204931,199834
1763,204930,199827
1906,204906,199812
1730,204908,199821
1811,204919,199824
1637,204968,199844
1744,205003,199871
1527,205085,199912
1712,205148,199955
1662,205255,199987
1717,205342,200043
1616,205453,200075
1820,205538,200131
2039,205624,200172
3041,205709,200200
3479,205785,200241
2259,205859,200275
1407,205962,200325
1389,206084,200373
1386,206194,200422
1459,206296,200462
1443,206385,200522
1535,206468,200546
1533,206547,200587
1602,206613,200617
1565,206699,200651
1694,206776,200707
1652,206887,200750
1758,207006,200814
1710,207154,200871
1845,207264,200935
1792,207390,200964
1866,207343,200939
1796,207135,200814
1842,206734,200601
1734,206196,200323
1757,205535,200012
1678,204799,199660
1744,204070,199317
1685,203447,199029
1813,202984,198822
1661,202683,198706
1744,202537,198638
1705,202476,198624
1728,202522,198639
1759,202609,198700
1776,202758,198762
1783,202939,198849
1773,203136,198944
1785,203322,199037
1853,203499,199121
1795,203678,199203
1887,203823,199287
1846,204003,199362
1853,204171,199461
1808,204361,199529
1814,204524,199620
1825,204681,199678
1845,204786,199730
1799,204855,199751
1861,204895,199764
1775,204920,199776
1892,204943,199785
1899,204954,199793
1933,204971,199780
1889,204955,199784
1993,204931,199763
2011,204918,199756
1970,204910,199754
1876,204941,199777
1890,205002,199805
1846,205068,199835
1791,205153,199882
1777,205225,199910
1791,205285,199948
1797,205353,199972
1789,205406,200011
1968,205491,200038
2347,205557,200082
3782,205652,200110
3477,205736,200147
2105,205815,200185
1511,205903,200223
1520,205992,200263
1568,206050,200281
1633,206089,200316
1602,206123,200314
1733,206155,200353
1750,206207,200350
1784,206256,200388
1814,206360,200427
1856,206450,200486
1823,206562,200527
1905,206684,200585
1905,206770,200636
2006,206864,200677
1918,206892,200687
2057,206811,200614
1901,206555,200474
2014,206136,200249
1893,205556,199968
1942,204886,199628
1825,204151,199292
1913,203443,198939
1872,202834,198671
1936,202421,198483
1795,202136,198353
1965,201974,198293
1811,201929,198286
1879,201969,198311
1928,202089,198371
1973,202258,198464
1898,202457,198548
2045,202658,198650
1919,202867,198736
2061,203063,198845
1904,203259,198925
2064,203412,199001
1934,203568,199071
2032,203715,199138
1931,203840,199219
2007,203959,199251
1963,204065,199312
2025,204150,199336
1973,204178,199360
1991,204197,199343
1901,204149,199334
2058,204139,199313
1959,204099,199308
2106,204073,199286
2096,204036,199276
2107,204016,199255
1968,204017,199252
2000,204027,199253
1890,204045,199259
1926,204105,199297
1831,204163,199310
1952,204187,199339
1835,204248,199351
1936,204287,199391
1919,204374,199437
2341,204502,199492
2957,204644,199554
4095,204789,199628
2660,204911,199668
1762,205003,199716
1526,205088,199766
1682,205139,199776
1535,205178,199805
1654,205212,199813
1619,205228,199833
1753,205273,199827
1762,205269,199840
1855,205279,199845
1798,205290,199845
1920,205289,199848
1877,205301,199840
1926,205320,199863
1867,205342,199864
1987,205356,199877
1933,205310,199834
1963,205121,199735
1964,204775,199530
1936,204228,199272
1846,203579,198930
3509,202829,198571
0,202072,198207
0,201374,197895
0,200799,197634
0,200386,197436
0,200125,197318
0,199997,197264
0,199924,197250
0,199842,197202
585,199730,197149
795,199650,197114
896,199562,197080
958,199504,197058
1038,199472,197041
1088,199438,197020
1142,199446,197017
1190,199424,197013
1245,199443,197008
1282,199490,197031
1327,199570,197067
1349,199633,197111
1383,199672,197110
1431,199654,197092
2157,199583,197041
2771,199462,196990
3314,199339,196923
3859,199208,196870
4095,199085,196806
4095,198999,196757
4095,198952,196749
4095,198962,196744
4095,198991,196762
4095,199026,196760
4095,199016,196760
4095,199056,196767
4095,199091,196799
4095,199169,196811
4095,199178,196828
4095,199189,196821
4095,199170,196815
4095,199141,196803
4095,199096,196787
4095,199049,196762
4095,199039,196755
4095,199032,196762
4095,199065,196757
4095,199099,196784
4068,199127,196789
3376,199121,196791
3322,199008,196735
3206,198745,196601
3341,198370,196410
3263,197796,196124
3287,196840,195659
3119,195676,195004
3201,193965,194179
2943,191845,193121
3009,189564,192046
0,187345,190888
0,181523,184701
0,162516,165535
131,144465,153933
960,159099,181833
1072,160236,187397
1113,155843,184866
1159,152399,183124
1210,151974,183142
1254,151936,182682
1289,150301,180222
1322,143360,170661
1357,130536,154999
1380,111282,131367
1405,89762,105566
1427,69819,82370
1455,54474,64258
1904,42256,49935
2197,32729,38798
2679,25631,30373
2751,20443,24157
3071,16335,19215
3191,13018,15185
3395,10175,11743
3523,7760,8850
3651,5893,6667
3628,4576,5114
3839,3709,4112
4016,3120,3409
4095,2715,2943
3899,2410,2583
4095,2194,2356
3849,2066,2212
4095,2002,2103
3984,1945,2074
4095,1928,2021
4042,1904,2012
4007,1903,1989
3614,1877,1988
3691,1876,1982
3472,1869,1968
3385,1856,1966
3303,1870,1960
3331,1861,1964
3151,1865,1954
3152,1858,1957
3427,1865,1957
4095,1855,1963
4095,1863,1944
4095,1858,1963
3281,1860,1952
2395,1861,1956
2320,1864,1955
2331,1865,1962
2346,1863,1955
2291,1857,1953
2336,1869,1949
2328,1856,1956
2261,1870,1954
2225,1857,1951
2253,1863,1954
2233,1867,1958
2256,1857,1965
2235,1867,1953
2206,1859,1970
2131,1863,1953
2263,1860,1963
2255,1862,1960
2160,1857,1951
2059,1870,1955
1975,1868,1957
1927,1869,1960
1925,1857,1962
1908,1856,1956
1841,1871,1957
1775,1860,1965
1795,1870,1955
1682,1857,1960
1744,1867,1953
1666,1867,1976
1787,1872,1953
1686,1861,1968
1601,1868,1967
1567,1867,1960
1635,1867,1958
1616,1874,1960
1632,1859,1969
1517,1867,1953
1568,1864,1971
1433,1866,1959
1488,1860,1969
1447,1870,1954
1486,1860,1965
1420,1866,1957
1613,1865,1970
1428,1865,1965
1663,1873,1957
1479,1867,1962
1570,1880,1961
1355,1856,1965
1443,1870,1961
1196,1861,1966
1468,1867,1958
1327,1862,1969
1445,1864,1962
1363,1876,1961
1478,1868,1967
1561,1871,1967
2128,1871,1970
3387,1867,1960
2457,1869,1966
1307,1871,1958
1067,1868,1968
1052,1876,1956
1232,1863,1970
1071,1866,1965
1281,1861,1969
1193,1867,1966
1371,1871,1961
1327,1864,1971
1409,1870,1957
1298,1861,1977
1408,1873,1960
1401,1859,1977
1675,1880,1961
1520,1863,1973
1595,1866,1962
1514,1875,1966
1599,1870,1968
1535,1872,1973
1582,1870,1965
1504,1865,1971
1605,1867,1962
1426,1867,1969
1601,1863,1967
1458,1871,1960
1491,1860,1969
1479,1873,1966
1567,1869,1971
1489,1870,1970
1655,1872,1968
1556,1875,1971
1698,1871,1963
1659,1867,1970
1700,1877,1972
1699,1869,1967
1690,1875,1962
1717,1871,1974
1710,1869,1962
1695,1873,1983
1735,1866,1965
1762,1862,1971
1865,1869,1967
1823,1872,1970
1836,1872,1962
1889,1871,1974
1815,1874,1974
1842,1867,1966
