ets Jul 29 2019 12:21:46
rst:0x1 (POWERON_RESET),boot:0x13 (SPI_FAST_FLASH_BOOT)
configsip: 0, SPIWP:0xee
clk_drv:0x00,q_drv:0x00,d_drv:0x00,cs0_drv:0x00,hd_drv:0x00,wp_drv:0x00
mode:DIO, clock div:2
load:0x3fff0030,len:1184
load:0x40078000,len:13232
load:0x40080400,len:3028
entry 0x400805e4
================================
Khởi động hệ thống đồng bộ
MAX30102 + AD8232
================================
[1] Khởi tạo AD8232...
LO+ status: 0
✓ AD8232 sẵn sàng
[2] Khởi tạo I2C...
✓ I2C initialized
[3] Scanning I2C bus...
Found device at 0x57
[4] Initializing MAX30102...
✓ MAX30102 found!
Test IR value: 18907
✓ MAX30102 configured
================================
Trạng thái hệ thống:
AD8232:   ✓ OK
MAX30102: ✓ OK
================================
Gắn 3 điện cực ECG vào cơ thể
Đặt ngón tay lên MAX30102
================================
Timestamp(ms),IR,Red,ECG,HR,SpO2,FingerDetected,LeadsOff
3470,121056,119116,3397
3480,121264,119236,3853
3490,121447,119355,4095
3500,121593,119470,4095
3510,121773,119605,4095
3520,121955,119738,4095
3530,122138,119895,4095
3540,122334,120094,4095
3550,122560,120272,4095
3560,122791,120441,4095
3570,122997,120561,4095
3580,123139,120614,4095
3590,123242,120638,4095
3600,123273,120633,4095
3610,123279,120624,4095
3620,123278,120642,4095
3630,123312,120680,4095
3640,123403,120779,4095
3650,123527,120871,4095
3660,123629,120934,4095
3670,123733,121005,4095
3680,123817,121026,4095
3691,123860,121018,4095
3701,123895,121028,4095
3711,123914,121045,4095
3721,123923,121034,4095
3731,123919,121037,4095
3741,123928,121013,4095
3751,123901,120982,4095
3761,123864,120923,4095
3771,123828,120908,4095
3781,123786,120878,4095
3791,123793,120881,4095
3802,123845,120913,4095
3812,123897,120967,4095
3822,123951,121038,4095
3832,124044,121088,4095
3842,124092,121129,4095
3852,124164,121204,4095
3862,124217,121250,4095
3872,124312,121314,4095
3882,124399,121410,4095
3892,124462,121459,4095
3902,124517,121499,4095
3913,124564,121531,4095
3923,124582,121549,4095
3933,124598,121597,4095
3943,124606,121614,4095
3953,124605,121634,4095
3963,124651,121685,4095
3973,124671,121746,3802
3983,124727,121804,3671
3993,124794,121865,3378
4003,124861,121904,3325
4013,124882,121904,3216
4023,124916,121921,3202
4034,124953,121929,2981
4044,124982,121936,3088
4054,124997,121948,3030
4064,125005,121964,2825
4074,125035,121992,2896
4084,125084,122134,2865
4094,125175,122221,2815
4104,125259,122294,2763
4114,125360,122363,2559
4124,125461,122453,2526
4134,125578,122576,2512
4145,125729,122667,2459
4155,125843,122752,2437
4165,125936,122819,2351
4175,126010,122868,2286
4185,126084,122940,2263
4195,126161,123002,2118
4205,126225,123049,2099
4215,126306,123102,2207
4225,126347,123132,2171
4235,126407,123170,2045
4245,126472,123193,2064
4256,126526,123237,1955
4266,126584,123309,1723
4276,126696,123394,1820
4286,126788,123472,1791
4296,126890,123579,1781
4306,127016,123694,1758
4316,127138,123800,1771
4326,127275,123921,1777
4336,127424,124032,1869
4346,127523,124109,1981
4356,127625,124194,2337
4366,127730,124262,3449
4377,127841,124330,2953
4387,127940,124395,1931
4397,128030,124465,1831
4407,128117,124503,1931
4417,128207,124541,1954
4427,128258,124602,1935
4437,128308,124653,1949
4447,128378,124698,2001
4457,128420,124740,1988
4467,128451,124764,1967
4477,128490,124769,2119
4488,128533,124782,2167
4498,128563,124796,2098
4508,128583,124823,2192
4518,128621,124843,2128
4528,128660,124872,2155
4538,128655,124896,2189
4548,128689,124920,2202
4558,128716,124938,2275
4568,128687,124938,2225
4578,128656,124944,2197
4588,128618,124924,2145
4599,128576,124917,2047
4609,128558,124903,2026
4619,128548,124924,1973
4629,128558,124960,1933
4639,128562,124972,1851
4649,128596,125004,1808
4659,128625,125026,1826
4669,128657,125057,1757
4679,128686,125104,1744
4689,128714,125112,1815
4699,128726,125122,1788
4709,128776,125143,1771
4720,128796,125173,1790
4730,128821,125177,1813
4740,128848,125216,1791
4750,128884,125224,1824
4760,128927,125252,1783
4770,128954,125271,1755
4780,128971,125256,1846
4790,128978,125270,1771
4800,128980,125287,1770
4810,128993,125284,1778
4820,128998,125283,1851
4831,129001,125285,1830
4841,129034,125273,1831
4851,129029,125297,1878
4861,129049,125294,1871
4871,129057,125305,1961
4881,129057,125340,1934
4891,129085,125348,1864
4901,129120,125362,1840
4911,129146,125386,1849
4921,129161,125411,1808
4931,129183,125413,1801
4941,129196,125433,1808
4952,129239,125441,1727
4962,129272,125464,1857
4972,129286,125468,1842
4982,129313,125483,2163
4992,129342,125496,2639
5002,129351,125501,3600
5012,129346,125471,2437
5022,129346,125472,1772
5032,129354,125466,1744
5042,129358,125476,1793
5052,129372,125493,1801
5063,129408,125494,1794
5073,129445,125534,1873
5083,129482,125569,1790
5093,129524,125605,1776
5103,129572,125618,1885
5113,129594,125638,1927
5123,129610,125651,1961
5133,129622,125633,1909
5143,129628,125645,1957
5153,129636,125645,1981
5163,129642,125640,2011
5174,129663,125644,2062
5184,129664,125641,2103
5194,129673,125639,2032
5204,129658,125632,1980
5214,129634,125632,2047
5224,129598,125623,1950
5234,129562,125636,1974
5244,129529,125625,1843
5254,129506,125623,1939
5264,129497,125604,1777
5274,129477,125600,1872
5284,129467,125582,1781
5295,129487,125572,1849
5305,129490,125580,1820
5315,129504,125577,1822
5325,129525,125581,1793
5335,129545,125598,1840
5345,129558,125603,1825
5355,129595,125624,1915
5365,129595,125649,1951
5375,129633,125681,1955
5385,129655,125687,1998
5395,129680,125739,1978
5406,129730,125754,2015
5416,129770,125760,2065
5426,129780,125766,2064
5436,129774,125750,2033
5446,129785,125754,2132
5456,129786,125761,2096
5466,129779,125763,2231
5476,129779,125757,2203
5486,129767,125755,2100
5496,129751,125755,2107
5506,129759,125757,2047
5516,129766,125770,1958
5527,129786,125785,2071
5537,129814,125808,2000
5547,129806,125783,1963
5557,129796,125778,1997
5567,129785,125752,1992
5577,129747,125697,2335
5587,129742,125718,3007
5597,129742,125695,3875
5607,129716,125659,2473
5617,129693,125634,1914
5627,129685,125619,1851
5638,129680,125609,1931
5648,129702,125601,1921
5658,129705,125623,1933
5668,129711,125598,1907
5678,129711,125577,1947
5688,129704,125566,1921
5698,129688,125573,2037
5708,129705,125585,2000
5718,129712,125597,1957
5728,129735,125624,2096
5738,129810,125795,2069
5749,129819,125803,2085
5759,129828,125768,2193
5769,129768,125697,2211
5779,129666,125638,2184
5789,129636,125599,2182
5799,129598,125604,2168
5809,129544,125549,2060
5819,129466,125504,2106
5829,129402,125464,2112
5839,129328,125433,1945
5849,129296,125405,1939
5859,129219,125374,1879
5870,129208,125354,1910
5880,129205,125380,1889
5890,129244,125399,1873
5900,129265,125429,1904
5910,129288,125445,1859
5920,129323,125491,1840
5930,129370,125521,1899
5940,129397,125557,1871
5950,129419,125565,1922
5960,129437,125566,1899
5970,129452,125582,1948
5981,129466,125586,1853
5991,129495,125586,1931
6001,129512,125610,1936
6011,129535,125592,1942
6021,129544,125590,1935
6031,129538,125588,1918
6041,129526,125575,2059
6051,129526,125573,2000
6061,129512,125579,2081
6071,129524,125583,2063
6081,129516,125587,1983
6091,129513,125593,1952
6102,129537,125587,1921
6112,129559,125614,1789
6122,129560,125627,1843
6132,129564,125642,1875
6142,129578,125650,1877
6152,129576,125638,1814
6162,129566,125623,1975
6172,129554,125600,2227
6182,129540,125604,3126
6192,129547,125592,3399
6202,129549,125586,2175
6213,129562,125576,1675
6223,129580,125581,1839
6233,129594,125599,1710
6243,129583,125610,1840
6253,129601,125607,1776
6263,129587,125609,1751
6273,129602,125600,1822
6283,129596,125600,1776
6293,129576,125586,1826
6303,129573,125561,1840
6313,129550,125551,1917
6324,129556,125545,1840
6334,129568,125546,1949
6344,129561,125553,1968
6354,129580,125555,1941
6364,129555,125535,2088
6374,129528,125515,2107
6384,129492,125494,2002
6394,129417,125468,2069
6404,129354,125412,2000
6414,129294,125396,1938
6424,129226,125352,1867
6434,129183,125339,1888
6445,129164,125304,1847
6455,129157,125275,1818
6465,129130,125243,1717
6475,129096,125208,1794
6485,129077,125206,1772
6495,129094,125218,1838
6505,129079,125223,1776
6515,129097,125254,1777
6525,129133,125279,1883
6535,129158,125292,1776
6545,129156,125285,1808
6556,129176,125281,1840
6566,129183,125279,1786
6576,129202,125286,1897
6586,129206,125279,1853
6596,129226,125259,1899
6606,129200,125255,1953
6616,129192,125226,1934
6626,129179,125227,1925
6636,129169,125227,2007
6646,129165,125221,1953
6656,129155,125211,1903
6666,129140,125178,1841
6677,129146,125176,1744
6687,129137,125174,1799
6697,129132,125163,1744
6707,129137,125154,1775
6717,129140,125158,1808
6727,129142,125173,1871
6737,129148,125161,2107
6747,129146,125173,2887
6757,129153,125157,3632
6767,129140,125144,2303
6777,129134,125122,1747
6788,129142,125100,1727
6798,129138,125074,1698
6808,129100,125027,1721
6818,129071,124975,1667
6828,129029,124929,1664
6838,128986,124897,1766
6848,128946,124867,1797
6858,128939,124845,1767
6868,128921,124839,1786
6878,128893,124748,1867
6888,128813,124673,1813
6899,128749,124592,1932
6909,128676,124533,1939
6919,128642,124507,2029
6929,128610,124465,2022
6939,128564,124437,1944
6949,128538,124446,1984
6959,128491,124457,1988
6969,128492,124470,1937
6979,128508,124498,1937
6989,128505,124507,1872
6999,128483,124486,1849
7009,128462,124456,1808
7020,128451,124429,1840
7030,128423,124402,1698
7040,128393,124367,1835
7050,128379,124349,1806
7060,128368,124354,1770
7070,128386,124380,1782
7080,128406,124401,1797
7090,128417,124379,1809
7100,128380,124367,1807
7110,128377,124355,1841
7120,128390,124365,1859
7131,128422,124393,1905
7141,128435,124408,1825
7151,128455,124446,1971
7161,128498,124468,1953
7171,128541,124515,2015
7181,128572,124546,2038
7191,128589,124595,2001
7201,128652,124658,1947
7211,128707,124711,1846
7221,128740,124738,1858
7231,128764,124763,1812
7241,128775,124766,1899
7252,128822,124767,1873
7262,128822,124761,1872
7272,128819,124806,1906
7282,128845,124831,2064
7292,128881,124825,2597
7302,128898,124863,3926
7312,128895,124873,2800
7322,128923,124864,1941
7332,128921,124884,1853
7342,128937,124897,1912
7352,128949,124903,1832
7363,128978,124886,1824
7373,128979,124891,1849
7383,129003,124887,1951
7393,128979,124862,1926
7403,128951,124818,1983
7413,128939,124793,1999
7423,128914,124786,2061
7433,128908,124788,2036
7443,128921,124835,2058
7453,128965,124858,2043
7463,128991,124887,2224
7473,129020,124905,2147
7484,129016,124904,2227
7494,129015,124903,2164
7504,128968,124884,2147
7514,128906,124851,2148
7524,128860,124825,2028
7534,128815,124791,2090
7544,128769,124760,1966
7554,128701,124729,1955
7564,128668,124720,1943
7574,128654,124704,1951
7584,128647,124707,1950
7595,128669,124712,1917
7605,128697,124748,1877
7615,128739,124788,1901
7625,128782,124797,1967
7635,128775,124814,1888
7645,128784,124792,1969
7655,128762,124776,1943
7665,128753,124785,1878
7675,128770,124794,1875
7685,128768,124810,1905
7695,128785,124818,1859
7705,128816,124825,1998
7716,128838,124821,1986
7726,128828,124825,2041
7736,128827,124809,2093
7746,128818,124804,1856
7756,128805,124789,1847
7766,128800,124800,1808
7776,128802,124799,1802
7786,128817,124821,1792
7796,128818,124834,1776
7806,128831,124816,1780
7816,128821,124807,1744
7827,128825,124801,1776
7837,128843,124797,1965
7847,128836,124797,2608
7857,128842,124795,3599
7867,128834,124789,2419
7877,128829,124804,1679
7887,128837,124803,1607
7897,128829,124803,1672
7907,128822,124795,1626
7917,128829,124797,1598
7927,128821,124795,1680
7937,128820,124801,1648
7948,128861,124803,1664
7958,128871,124823,1642
7968,128889,124815,1604
7978,128881,124802,1642
7988,128890,124810,1715
7998,128887,124814,1780
8008,128892,124818,1776
8018,128898,124826,1786
8028,128885,124813,1790
8038,128871,124809,1745
8048,128830,124783,1749
8059,128807,124768,1727
8069,128765,124726,1741
8079,128691,124696,1636
8089,128653,124652,1691
8099,128616,124631,1581
8109,128569,124606,1514
8119,128528,124574,1502
8129,128500,124554,1474
8139,128467,124545,1366
8149,128470,124513,1505
8159,128444,124512,1491
8169,128439,124493,1483
8180,128433,124469,1472
8190,128435,124476,1473
8200,128438,124456,1489
8210,128430,124440,1495
8220,128414,124432,1556
8230,128391,124401,1501
8240,128375,124371,1535
8250,128364,124358,1512
8260,128337,124342,1532
8270,128339,124321,1584
8280,128313,124302,1616
8291,128317,124303,1638
8301,128328,124276,1741
8311,128301,124274,1638
8321,128283,124260,1563
8331,128282,124281,1495
8341,128291,124297,1482
8351,128308,124301,1520
8361,128325,124323,1490
8371,128320,124322,1502
8381,128323,124307,1519
8391,128316,124313,1477
8402,128333,124312,1617
8412,128345,124316,1936
8422,128370,124340,3142
8432,128411,124388,2815
8442,128447,124404,1734
8452,128479,124438,1430
8462,128505,124430,1552
8472,128513,124439,1558
8482,128519,124428,1531
8492,128504,124422,1518
8502,128501,124412,1606
8513,128521,124414,1613
8523,128517,124414,1623
8533,128527,124419,1649
8543,128548,124417,1705
8553,128540,124429,1680
8563,128555,124431,1747
8573,128545,124449,1680
8583,128559,124468,1808
8593,128586,124496,1876
8603,128599,124521,1840
8613,128592,124519,1861
8623,128566,124495,1810
8634,128528,124471,1837
8644,128507,124481,1791
8654,128494,124473,1808
8664,128467,124469,1757
8674,128463,124473,1709
8684,128432,124468,1705
8694,128428,124455,1672
8704,128422,124453,1741
8714,128411,124472,1717
8724,128430,124484,1645
8734,128443,124509,1728
8745,128497,124549,1731
8755,128551,124597,1697
8765,128596,124643,1795
8775,128643,124666,1771
8785,128650,124674,1789
8795,128668,124692,1744
8805,128659,124696,1765
8815,128675,124684,1744
8825,128672,124681,1771
8835,128658,124684,1783
8845,128645,124677,1791
8855,128662,124683,1801
8866,128668,124673,1858
8876,128665,124663,1846
8886,128657,124654,1906
8896,128647,124676,1959
8906,128661,124669,1895
8916,128662,124696,1754
8926,128660,124690,1834
8936,128663,124710,1706
8946,128686,124701,1780
8956,128681,124708,1692
8966,128674,124708,1739
8977,128693,124700,1717
8987,128722,124723,1875
8997,128738,124738,2087
9007,128755,124731,2860
9017,128760,124711,3362
9027,128755,124738,2135
9037,128771,124740,1647
9047,128788,124741,1809
9057,128808,124763,1711
9067,128831,124775,1776
9077,128824,124768,1715
9088,128843,124766,1754
9098,128848,124766,1790
9108,128866,124766,1748
9118,128875,124774,1857
9128,128883,124779,1791
9138,128884,124777,1853
9148,128873,124762,1886
9158,128867,124756,1938
9168,128848,124736,1911
9178,128831,124718,1990
9188,128809,124692,2000
9198,128782,124685,2088
9209,128778,124691,2031
9219,128780,124712,1927
9229,128753,124708,1974
9239,128748,124691,1926
9249,128700,124656,1945
9259,128648,124643,1877
9269,128633,124599,1856
9279,128590,124600,1799
9289,128565,124592,1789
9299,128575,124593,1815
9309,128582,124599,1844
9320,128606,124598,1855
9330,128614,124608,1869
9340,128613,124599,1930
9350,128626,124607,1931
9360,128637,124604,1910
9370,128636,124632,1885
9380,128650,124648,1927
9390,128676,124659,1971
9400,128697,124683,1903
9410,128699,124649,2013
9420,128681,124646,1982
9431,128695,124630,1899
9441,128681,124603,1939
9451,128691,124630,1968
9461,128681,124617,1947
9471,128685,124625,1966
9481,128688,124634,1955
9491,128684,124648,2043
9501,128691,124669,2064
9511,128689,124660,2171
9521,128673,124656,2112
9531,128677,124659,2064
9541,128688,124670,1914
9552,128721,124674,1942
9562,128737,124698,1915
9572,128747,124705,1921
9582,128750,124705,1872
9592,128761,124698,1855
9602,128775,124737,1914
9612,128784,124735,2109
9622,128803,124750,2432
9632,128810,124767,3474
9642,128835,124793,3018
9652,128863,124827,1984
9663,128885,124829,1688
9673,128909,124854,1914
9683,128944,124882,1914
9693,128979,124899,1898
9703,128996,124914,1833
9713,128990,124915,1884
9723,129005,124932,1872
9733,129017,124941,1897
9743,129027,124943,1935
9753,129019,124927,1922
9763,129006,124923,1940
9773,129003,124897,2021
9784,129010,124890,1991
9794,129008,124874,2079
9804,128982,124861,2096
9814,128948,124829,2096
9824,128925,124818,2103
9834,128848,124770,2092
9844,128783,124732,2000
9854,128741,124705,2029
9864,128692,124685,1925
9874,128658,124670,1960
9884,128638,124669,1819
9895,128648,124662,1856
9905,128650,124676,1747
9915,128652,124692,1775
9925,128680,124700,1744
9935,128691,124719,1810
9945,128684,124731,1770
9955,128687,124712,1824
9965,128675,124682,1842
9975,128655,124694,1857
9985,128649,124683,1856
9995,128649,124669,1827
10005,128642,124648,1856
10016,128646,124642,1833
10026,128648,124638,1878
10036,128645,124631,1838
10046,128650,124632,1839
10056,128669,124635,1924
10066,128658,124641,1841
10076,128673,124650,1803
10086,128684,124647,1881
10096,128686,124637,1925
10106,128671,124626,1776
10116,128649,124609,2011
10127,128647,124597,1957
10137,128660,124611,1920
10147,128670,124623,1997
10157,128700,124632,2036
10167,128723,124654,2026
10177,128746,124691,1957
10187,128763,124718,1968
10197,128785,124751,1924
10207,128790,124755,1841
10217,128799,124744,1894
10227,128815,124746,1887
10238,128831,124767,1797
10248,128858,124771,1887
10258,128883,124794,1957
10268,128880,124769,2304
10278,128884,124775,3232
10288,128890,124783,3136
10298,128889,124783,2018
10308,128905,124795,1646
10318,128934,124834,1827
10328,128960,124845,1763
10338,128979,124871,1808
10348,128994,124864,1796
10359,129019,124887,1768
10369,129038,124910,1808
10379,129071,124926,1791
10389,129103,124964,1873
10399,129125,124967,1761
10409,129118,124976,1878
10419,129121,124967,1875
10429,129111,124941,1858
10439,129091,124915,1935
10449,129051,124858,2047
10459,128998,124845,1997
10470,128957,124790,1965
10480,128913,124769,2007
10490,128845,124756,2014
10500,128824,124742,1872
10510,128792,124742,1908
10520,128770,124747,1904
10530,128736,124720,1870
10540,128706,124711,1788
10550,128701,124710,1737
10560,128681,124721,1743
10570,128683,124722,1699
10581,128715,124736,1808
10591,128730,124743,1659
10601,128745,124766,1719
10611,128789,124769,1709
10621,128801,124795,1714
10631,128808,124813,1765
10641,128813,124811,1754
10651,128816,124813,1763
10661,128837,124834,1795
10671,128851,124840,1804
10681,128863,124856,1771
10691,128861,124847,1766
10702,128872,124835,1730
10712,128877,124823,1753
10722,128845,124787,1714
10732,128809,124765,1710
10742,128798,124733,1737
10752,128770,124727,1728
10762,128762,124708,1680
10772,128743,124710,1751
10782,128737,124707,1786
10792,128749,124722,1746
10802,128759,124740,1732
10812,128782,124762,1781
10823,128827,124772,1870
10833,128849,124799,1761
10843,128873,124795,1942
10853,128884,124787,1999
10863,128868,124773,1838
10873,128859,124780,1863
10883,128891,124771,1744
10893,128878,124771,1783
10903,128890,124774,1832
10913,128894,124769,1798
10923,128898,124741,1776
10934,128918,124744,1844
10944,128926,124747,1864
10954,128936,124746,2160
10964,128946,124752,3071
10974,128954,124760,3257
10984,128979,124791,2123
10994,128996,124812,1751
11004,129008,124801,1791
11014,129007,124824,1830
11024,128995,124813,1731
11034,128993,124798,1842
11044,128980,124778,1856
11055,128994,124774,1837
11065,129007,124796,1933
11075,129017,124784,1883
11085,129003,124770,1826
11095,129013,124779,1972
11105,129019,124816,1963
11115,129037,124819,2083
11125,129046,124824,2053
11135,129036,124816,2064
11145,129016,124784,2139
11155,128975,124754,2117
11166,128945,124735,2063
11176,128897,124720,2076
11186,128862,124700,2043
11196,128818,124688,2039
11206,128787,124669,2002
11216,128724,124655,2013
11226,128691,124650,1968
11236,128689,124654,1973
11246,128695,124647,1972
11256,128691,124641,1936
11266,128679,124628,1931
11277,128685,124627,1911
11287,128683,124631,1922
11297,128672,124627,2001
11307,128672,124624,2001
11317,128683,124610,2010
11327,128659,124590,2001
11337,128646,124590,1938
11347,128654,124597,1962
11357,128650,124580,1991
11367,128634,124572,1984
11377,128633,124562,2006
11387,128629,124567,1957
11398,128650,124570,1944
11408,128666,124587,1945
11418,128687,124588,1957
11428,128690,124606,1935
11438,128686,124627,1969
11448,128678,124603,2018
11458,128684,124618,1955
11468,128671,124604,2000
11478,128678,124611,1958
11488,128685,124601,1973
11498,128683,124610,2046
11509,128708,124601,2057
11519,128737,124611,2096
11529,128738,124614,2137
11539,128742,124600,2096
11549,128768,124620,1985
11559,128781,124651,1936
11569,128803,124648,1877
11579,128811,124664,1893
11589,128827,124657,1881
11599,128822,124648,1915
11609,128809,124627,1901
11620,128835,124622,1983
11630,128832,124609,2303
11640,128847,124621,3017
11650,128839,124596,3356
11660,128844,124607,2212
11670,128851,124612,1752
11680,128849,124612,1857
11690,128861,124621,1808
11700,128862,124602,1803
11710,128869,124597,1789
11720,128826,124564,1799
11730,128826,124538,1777
11741,128844,124530,1888
11751,128851,124536,1885
11761,128831,124526,1936
11771,128838,124512,1930
11781,128832,124489,1989
11791,128815,124499,1949
11801,128827,124491,1933
11811,128818,124502,2057
11821,128835,124510,2032
11831,128814,124494,2088
11841,128784,124506,2077
11852,128792,124490,2000
11862,128785,124509,1983
11872,128758,124528,1989
11882,128767,124508,1901
11892,128742,124513,1892
11902,128735,124535,1811
11912,128741,124563,1783
11922,128794,124589,1725
11932,128800,124627,1788
11942,128837,124669,1747
11952,128863,124684,1680
11963,128917,124726,1759
11973,128961,124747,1744
11983,128992,124765,1719
11993,129017,124761,1793
12003,129010,124764,1718
12013,129014,124760,1750
12023,129022,124782,1734
12033,129031,124783,1752
12043,129057,124802,1767
12053,129053,124819,1792
12063,129074,124809,1738
12073,129090,124821,1781
12084,129089,124799,1747
12094,129093,124786,1699
12104,129081,124789,1710
12114,129049,124774,1772
12124,129063,124775,1796
12134,129065,124814,1805
12144,129081,124840,1785
12154,129103,124844,1837
12164,129131,124869,1861
12174,129137,124870,1828
12184,129158,124867,1899
12195,129157,124869,1781
12205,129162,124857,1729
12215,129171,124873,1728
12225,129185,124873,1638
12235,129211,124897,1702
12245,129227,124925,1744
12255,129248,124942,1712
12265,129285,124959,1805
12275,129306,124969,2047
12285,129325,124979,2555
12295,129344,124985,3360
12305,129353,124969,2409
12316,129372,124971,1707
12326,129393,124977,1727
12336,129395,124995,1808
12346,129431,125020,1792
12356,129442,125026,1792
12366,129457,125045,1782
12376,129458,125038,1905
12386,129469,125053,1827
12396,129491,125070,1878
12406,129504,125074,1848
12416,129505,125068,1867
12426,129508,125052,1877
12437,129513,125049,1938
12447,129522,125049,1926
12457,129524,125040,2002
12467,129507,125032,2018
12477,129501,125017,2027
12487,129456,124994,1980
12497,129424,124955,1945
12507,129357,124909,1970
12517,129291,124868,1905
12527,129227,124821,1925
12537,129161,124784,1817
12548,129136,124760,1739
12558,129115,124751,1765
12568,129089,124746,1714
12578,129106,124728,1753
12588,129110,124733,1700
12598,129087,124741,1712
12608,129092,124738,1818
12618,129102,124735,1772
12628,129100,124729,1780
12638,129092,124721,1723
12648,129075,124684,1745
12658,129063,124670,1762
12669,129044,124626,1805
12679,129032,124612,1765
12689,129036,124635,1861
12699,129048,124641,1808
12709,129056,124641,1786
12719,129072,124662,1724
12729,129069,124680,1783
12739,129089,124700,1850
12749,129121,124725,1920
12759,129118,124727,1872
12769,129135,124713,1995
12780,129128,124695,1982
12790,129115,124695,1792
12800,129119,124698,1903
12810,129134,124703,1735
12820,129124,124726,1782
12830,129132,124741,1806
12840,129152,124760,1731
12850,129176,124758,1729
12860,129178,124769,1689
12870,129180,124754,1904
12880,129166,124745,2221
12890,129175,124737,3415
12901,129182,124746,2592
12911,129197,124751,1731
12921,129208,124773,1587
12931,129235,124792,1682
12941,129259,124802,1664
12951,129263,124817,1603
12961,129275,124836,1640
12971,129306,124857,1772
12981,129317,124871,1712
12991,129323,124874,1773
13001,129335,124888,1687
13011,129345,124885,1768
13022,129370,124902,1856
13032,129421,124941,1831
13042,129432,124944,1889
13052,129459,124950,1883
13062,129467,124963,1963
13072,129451,124942,1978
13082,129432,124930,1932
13092,129386,124915,2045
13102,129337,124888,1969
13112,129282,124832,1918
13122,129221,124776,1795
13133,129172,124730,1869
13143,129116,124677,1785
13153,129076,124671,1779
13163,129062,124663,1735
13173,129062,124672,1814
13183,129064,124695,1750
13193,129097,124731,1757
13203,129132,124748,1848
13213,129153,124773,1833
13223,129173,124777,1771
13233,129182,124769,1824
13243,129168,124749,1777
13254,129168,124722,1895
13264,129154,124711,1854
13274,129148,124687,1856
13284,129145,124671,1828
13294,129124,124657,1797
13304,129112,124654,1871
13314,129118,124657,1889
13324,129136,124674,1796
13334,129134,124690,1936
13344,129145,124680,1927
13354,129148,124676,1980
13364,129120,124616,1994
13375,129106,124589,2004
13385,129065,124551,2027
13395,129048,124533,1937
13405,129008,124509,1901
13415,128986,124504,1909
13425,128968,124505,1871
13435,128982,124506,1813
13445,128984,124525,1939
13455,129006,124565,1816
13465,129027,124564,1953
13475,129052,124586,2037
13486,129061,124573,2673
13496,129067,124569,3846
13506,129051,124551,2655
13516,129044,124551,1865
13526,129050,124538,1840
13536,129037,124549,1824
13546,129038,124532,1808
13556,129040,124543,1871
13566,129044,124569,1840
13576,129071,124565,1917
13586,129078,124579,1872
13596,129088,124573,1953
13607,129102,124566,1985
13617,129127,124568,2000
13627,129111,124558,1990
13637,129099,124546,1969
13647,129094,124538,2123
13657,129081,124555,2105
13667,129081,124568,2199
13677,129064,124562,2128
13687,129059,124573,2138
13697,129044,124555,2131
13707,129001,124542,2102
13718,128985,124512,2055
13728,128941,124501,2012
13738,128906,124488,2039
13748,128877,124468,1942
13758,128864,124473,1873
13768,128839,124474,1840
13778,128824,124459,1878
13788,128817,124467,1855
13798,128814,124471,1929
13808,128830,124480,1923
13818,128839,124488,1878
13829,128867,124497,1920
13839,128874,124494,1927
13849,128893,124506,1889
13859,128913,124499,1942
13869,128906,124501,1914
13879,128887,124485,1930
13889,128892,124483,1904
13899,128887,124487,1897
13909,128906,124502,1922
13919,128918,124515,1887
13929,128946,124527,1869
13939,128930,124532,1903
13950,128965,124533,1991
13960,128981,124529,1945
13970,128987,124524,2035
13980,128972,124511,2107
13990,128959,124476,1962
14000,128956,124487,1920
14010,128930,124477,1930
14020,128937,124494,1811
14030,128948,124510,1826
14040,128956,124494,1869
14050,128953,124495,1808
14061,128966,124473,1885
14071,128961,124471,1811
14081,128950,124457,2017
14091,128955,124459,2480
14101,128958,124456,3537
14111,128966,124468,2707
14121,128977,124475,1756
14131,128987,124490,1699
14141,129018,124486,1799
14151,129015,124499,1759
14161,129011,124480,1693
14171,129010,124481,1733
14182,129026,124480,1715
14192,129050,124481,1776
14202,129075,124499,1797
14212,129079,124499,1761
14222,129093,124495,1851
14232,129093,124507,1813
14242,129107,124509,1929
14252,129101,124522,1925
14262,129120,124538,1932
14272,129143,124563,1910
14282,129139,124549,2003
14293,129125,124546,1928
14303,129106,124522,2020
14313,129066,124513,1913
14323,129020,124493,1901
14333,128979,124473,1882
14343,128944,124490,1757
14353,128903,124457,1798
14363,128900,124451,1738
14373,128887,124465,1664
14383,128895,124464,1760
14393,128880,124477,1701
14403,128892,124474,1772
14414,128934,124490,1714
14424,128959,124503,1760
14434,128988,124526,1757
14444,128993,124535,1757
14454,129007,124521,1759
14464,129006,124529,1794
14474,128989,124520,1831
14484,128976,124498,1795
14494,128960,124489,1777
14504,128949,124474,1781
14514,128951,124458,1792
14525,128943,124447,1840
14535,128950,124458,1771
14545,128951,124470,1817
14555,128956,124442,1781
14565,128938,124443,1802
14575,128921,124436,1804
14585,128936,124459,1820
14595,128935,124466,1919
14605,128919,124472,1939
14615,128913,124454,1953
14625,128921,124446,1968
14635,128899,124440,1867
14646,128931,124434,1853
14656,128924,124441,1754
14666,128937,124439,1788
14676,128947,124453,1765
14686,128939,124435,1808
14696,128929,124452,1776
14706,128937,124446,1744
14716,128950,124453,1971
14726,128952,124441,2409
14736,128946,124426,3409
14746,128935,124421,2675
14757,128945,124407,1749
14767,128947,124380,1744
14777,128949,124384,1715
14787,128947,124372,1727
14797,128966,124396,1678
14807,128972,124417,1767
14817,129013,124456,1765
14827,129042,124466,1744
14837,129060,124488,1852
14847,129057,124485,1815
14857,129075,124463,1793
14867,129058,124463,1779
14878,129082,124458,1838
14888,129105,124471,1885
14898,129108,124497,1952
14908,129120,124483,1986
14918,129106,124476,1963
14928,129080,124471,1989
14938,129036,124447,1919
14948,128993,124433,1953
14958,128953,124428,1808
14968,128939,124413,1835
14978,128906,124399,1866
14988,128870,124385,1789
14999,128858,124347,1695
15009,128853,124353,1643
15019,128827,124334,1725
15029,128825,124322,1681
15039,128819,124325,1658
15049,128835,124330,1702
15059,128836,124329,1728
15069,128856,124346,1697
15079,128849,124346,1717
15089,128846,124330,1714
15099,128841,124308,1747
15110,128846,124312,1729
15120,128845,124298,1739
15130,128849,124314,1769
15140,128850,124310,1779
15150,128865,124321,1787
15160,128872,124335,1749
15170,128863,124333,1725
15180,128879,124343,1789
15190,128889,124354,1744
15200,128875,124354,1820
15210,128869,124354,1881
15220,128872,124335,1825
15231,128872,124326,1948
15241,128865,124300,1935
15251,128861,124295,1880
15261,128851,124300,1866
15271,128864,124318,1831
15281,128889,124337,1731
15291,128899,124355,1793
15301,128912,124367,1737
15311,128911,124365,1769
15321,128916,124388,1772
15331,128911,124367,1791
15341,128928,124371,2046
15352,128940,124370,2671
15362,128959,124367,3563
15372,128953,124371,2454
15382,128959,124365,1791
15392,128959,124361,1702
15402,128959,124364,1799
15412,128955,124363,1739
15422,128957,124375,1799
15432,128955,124368,1768
15442,128952,124370,1859
15452,128960,124362,1836
15462,128954,124343,1837
15473,128962,124343,1937
15483,128952,124332,1913
15493,128979,124329,1872
15503,128946,124308,1944
15513,128920,124287,1987
15523,128892,124281,1994
15533,128877,124241,2044
15543,128843,124221,2113
15553,128799,124211,2006
15563,128767,124186,2045
15573,128725,124180,1990
15584,128699,124158,1925
15594,128680,124130,1950
15604,128643,124128,1822
15614,128617,124137,1900
15624,128613,124129,1877
15634,128593,124101,1815
15644,128568,124102,1821
15654,128574,124097,1808
15664,128574,124094,1818
15674,128571,124093,1821
15684,128576,124096,1872
15694,128600,124116,1831
15705,128632,124109,1897
15715,128636,124120,1895
15725,128667,124126,1851
15735,128672,124125,1914
15745,128664,124143,1909
15755,128707,124171,1845
15765,128724,124201,1903
15775,128755,124221,1871
15785,128774,124241,1820
15795,128797,124225,1870
15805,128800,124198,1875
15816,128810,124182,1858
15826,128786,124147,1874
15836,128776,124134,1968
15846,128761,124119,1911
15856,128767,124128,1971
15866,128776,124138,2053
15876,128782,124147,1931
15886,128783,124156,1936
15896,128821,124184,1882
15906,128827,124197,1926
15916,128858,124223,1853
15926,128884,124248,1825
15937,128910,124264,1700
15947,128963,124274,1881
15957,128950,124282,1877
15967,128960,124274,2099
15977,128977,124278,2769
15987,128951,124265,3627
15997,128941,124242,2453
16007,128935,124228,1812
16017,128904,124221,1767
16027,128914,124228,1795
16037,128930,124241,1792
16047,128942,124239,1856
16058,128957,124238,1800
16068,128985,124256,1837
16078,128979,124256,1861
16088,129002,124250,1884
16098,128973,124238,1856
16108,128968,124229,1905
16118,128963,124214,1926
16128,128965,124226,1874
16138,128956,124222,2017
16148,128946,124220,2058
16158,128933,124205,2034
16169,128925,124193,2069
16179,128891,124173,1997
16189,128847,124145,1993
16199,128787,124115,1997
16209,128750,124106,1974
16219,128697,124086,1906
16229,128656,124082,1868
16239,128634,124077,1765
16249,128578,124060,1765
16259,128571,124045,1730
16269,128541,124022,1721
16280,128536,124000,1761
16290,128523,123988,1712
16300,128535,124014,1653
16310,128546,124012,1712
16320,128538,123991,1809
16330,128528,123976,1718
16340,128509,123965,1776
16350,128491,123956,1809
16360,128476,123941,1805
16370,128485,123935,1743
16380,128470,123918,1825
16390,128461,123915,1803
16401,128467,123904,1766
16411,128466,123888,1789
16421,128460,123882,1826
16431,128464,123874,1821
16441,128463,123868,1854
16451,128453,123884,1715
16461,128427,123855,1827
16471,128419,123844,1768
16481,128398,123839,1827
16491,128403,123817,1869
16501,128371,123815,1900
16512,128376,123795,1929
16522,128375,123790,1943
16532,128389,123804,1962
16542,128422,123820,1825
16552,128438,123850,1819
16562,128456,123846,1725
16572,128445,123861,1736
16582,128457,123870,1727
16592,128480,123857,1775
16602,128472,123875,1745
16612,128478,123868,1776
16622,128478,123877,1975
16633,128518,123905,2559
16643,128561,123928,3441
16653,128586,123937,2352
16663,128602,123941,1750
16673,128608,123922,1709
16683,128611,123908,1710
16693,128588,123882,1710
16703,128560,123879,1741
16713,128572,123896,1693
16723,128585,123905,1746
16733,128597,123925,1725
16744,128632,123925,1760
16754,128666,123927,1893
16764,128661,123941,1811
16774,128674,123962,1904
16784,128686,123954,1905
16794,128688,123975,1892
16804,128681,123967,1970
16814,128675,123967,1898
16824,128664,123981,1951
16834,128648,123957,2037
16844,128603,123956,1981
16854,128575,123929,1952
16865,128554,123921,1905
16875,128516,123903,1874
16885,128469,123884,1784
16895,128433,123871,1749
16905,128416,123860,1769
16915,128383,123863,1727
16925,128380,123851,1712
16935,128366,123865,1667
16945,128369,123869,1675
16955,128371,123866,1704
16965,128374,123869,1694
16976,128400,123866,1713
16986,128401,123863,1721
16996,128399,123867,1746
17006,128409,123860,1776
17016,128403,123863,1743
17026,128408,123873,1775
17036,128399,123879,1743
17046,128424,123896,1769
17056,128431,123913,1751
17066,128441,123910,1727
17076,128447,123927,1753
17086,128460,123940,1782
17097,128485,123944,1752
17107,128490,123937,1726
17117,128492,123951,1751
17127,128468,123941,1691
17137,128478,123942,1807
17147,128485,123951,1745
17157,128477,123972,1757
17167,128491,123993,1804
17177,128527,124012,1714
17187,128537,124048,1744
17197,128581,124080,1746
17208,128619,124075,1801
17218,128645,124098,1766
17228,128659,124106,1956
17238,128667,124084,1914
17248,128677,124091,1923
17258,128684,124106,1801
17268,128689,124101,1793
17278,128705,124120,1706
17288,128711,124124,1770
17298,128717,124124,1704
17308,128727,124094,1731
17318,128725,124083,1803
17329,128737,124074,1763
17339,128760,124090,1966
17349,128772,124103,2296
17359,128787,124114,3456
17369,128815,124122,2704
17379,128814,124134,1787
17389,128806,124127,1682
17399,128799,124124,1680
17409,128784,124102,1795
17419,128788,124080,1781
17429,128773,124071,1803
17440,128782,124062,1825
17450,128785,124054,1803
17460,128778,124056,1859
17470,128789,124067,1825
17480,128812,124061,1823
17490,128818,124063,1981
17500,128804,124045,1937
17510,128814,124062,1971
17520,128816,124068,2025
17530,128816,124077,2069
17540,128819,124067,1997
17551,128803,124068,2096
17561,128779,124050,2033
17571,128761,124049,2069
17581,128725,124041,1968
17591,128665,124005,2024
17601,128626,123985,1946
17611,128584,123985,1894
17621,128565,123972,1865
17631,128552,123975,1868
17641,128543,123994,1821
17651,128533,123982,1875
17661,128536,123985,1866
17672,128558,123994,1850
17682,128587,124009,1793
17692,128591,124018,1854
17702,128591,124020,1796
17712,128610,124010,1841
17722,128586,124022,1840
17732,128586,124000,1904
17742,128567,123970,1903
17752,128555,123960,1895
17762,128550,123974,1840
17772,128553,123973,1879
17783,128571,123970,1847
17793,128583,123975,1825
17803,128599,123978,1872
17813,128598,123975,1874
17823,128594,123991,1868
17833,128592,123984,1837
17843,128587,124001,1836
17853,128590,124006,1888
17863,128588,124024,1860
17873,128600,124030,1903
17883,128618,124027,1855
17893,128624,124033,1894
17904,128616,124026,1942
17914,128646,124051,1936
17924,128660,124065,1936
17934,128660,124053,2062
17944,128670,124066,1985
17954,128669,124062,1950
17964,128679,124073,1950
17974,128683,124089,1904
17984,128706,124089,1881
17994,128716,124084,1794
18004,128721,124096,1872
18015,128742,124104,1850
18025,128762,124096,1836
18035,128766,124104,1936
18045,128756,124093,2278
18055,128765,124077,2939
18065,128755,124094,3531
18075,128765,124103,2297
18085,128783,124100,1758
18095,128799,124119,1834
18105,128813,124114,1847
18115,128800,124098,1882
18125,128798,124080,1825
18136,128827,124083,1920
18146,128849,124099,1898
18156,128856,124098,1897
18166,128858,124094,1904
18176,128880,124107,1949
18186,128886,124103,1920
18196,128868,124110,2011
18206,128869,124100,1978
18216,128882,124112,2046
18226,128886,124123,2086
18236,128881,124121,2112
18247,128902,124131,2046
18257,128881,124130,2053
18267,128855,124118,2095
18277,128827,124098,2043
18287,128782,124082,1979
18297,128746,124078,1935
18307,128696,124063,1847
18317,128672,124047,1904
18327,128641,124046,1776
18337,128641,124021,1810
18347,128619,124014,1773
18357,128620,123988,1717
18368,128640,123997,1808
18378,128627,123985,1788
18388,128646,124002,1739
18398,128648,123989,1777
18408,128660,124017,1727
18418,128665,124030,1805
18428,128692,124045,1795
18438,128698,124052,1817
18448,128705,124075,1762
18458,128705,124057,1803
18468,128701,124059,1783
18479,128718,124049,1808
18489,128732,124068,1727
18499,128747,124083,1774
18509,128766,124090,1788
18519,128764,124081,1683
18529,128757,124092,1750
18539,128730,124080,1722
18549,128726,124074,1753
18559,128728,124075,1744
18569,128720,124079,1774
18579,128721,124077,1867
18589,128717,124050,1823
18600,128716,124032,1808
18610,128700,124012,1782
18620,128686,123984,1814
18630,128663,123955,1897
18640,128653,123933,1836
18650,128619,123920,1897
18660,128629,123923,1949
18670,128640,123944,1876
18680,128656,123976,1857
18690,128690,124005,1802
18700,128706,124034,1712
18710,128744,124054,1745
18721,128796,124100,1684
18731,128849,124138,1661
18741,128885,124151,1699
18751,128913,124186,1714
18761,128940,124209,1825
18771,128959,124232,2158
18781,128990,124256,3257
18791,129020,124279,2908
18801,129031,124300,1829
18811,129059,124321,1559
18821,129078,124329,1664
18832,129117,124335,1656
18842,129133,124344,1535
18852,129129,124350,1630
18862,129129,124342,1600
18872,129151,124340,1658
18882,129128,124323,1631
18892,129127,124309,1681
18902,129118,124298,1735
18912,129105,124291,1743
18922,129106,124268,1765
18932,129098,124241,1751
18942,129086,124245,1838
18953,129095,124246,1859
18963,129117,124247,1855
18973,129103,124260,1872
18983,129086,124253,1954
18993,129069,124254,1839
19003,129027,124244,1856
19013,128988,124229,1778
19023,128944,124222,1776
19033,128918,124218,1684
19043,128896,124206,1643
19053,128868,124183,1657
19064,128846,124173,1596
19074,128846,124149,1555
19084,128846,124134,1654
19094,128841,124152,1649
19104,128842,124154,1573
19114,128858,124164,1639
19124,128875,124183,1664
19134,128871,124180,1688
19144,128874,124171,1731
19154,128868,124185,1753
19164,128857,124149,1792
19174,128852,124149,1712
19185,128864,124131,1776
19195,128882,124130,1764
19205,128890,124156,1782
19215,128901,124159,1802
19225,128917,124154,1767
19235,128916,124180,1799
19245,128914,124175,1808
19255,128923,124180,1808
19265,128920,124195,1836
19275,128936,124185,1823
19285,128924,124189,1869
19296,128944,124193,1802
19306,128941,124185,1831
19316,128966,124200,1853
19326,128967,124196,1896
19336,128988,124228,1835
19346,129009,124249,1843
19356,129027,124274,1838
19366,129061,124310,1917
19376,129086,124351,1925
19386,129129,124390,1947
19396,129159,124394,2015
19406,129190,124419,2097
19417,129213,124423,2014
19427,129217,124434,2009
19437,129261,124462,1936
19447,129274,124475,1932
19457,129304,124493,1952
19467,129309,124512,1931
19477,129311,124501,1941
19487,129331,124503,1980
19497,129320,124501,1930
19507,129325,124496,2098
19517,129321,124498,2393
19527,129318,124501,3600
19538,129345,124494,3153
19548,129367,124514,2061
19558,129385,124524,1872
19568,129384,124542,1972
19578,129395,124536,1958
19588,129395,124532,1904
19598,129379,124528,1910
19608,129384,124536,1968
19618,129397,124549,1943
19628,129417,124543,1937
19638,129421,124554,2027
19649,129443,124553,2027
19659,129474,124557,2064
19669,129470,124577,2091
19679,129493,124581,2116
19689,129494,124575,2212
19699,129492,124599,2177
19709,129480,124587,2139
19719,129469,124555,2232
19729,129430,124544,2193
19739,129367,124519,2191
19749,129326,124490,2135
19760,129265,124442,2173
19770,129205,124402,2091
19780,129152,124389,1995
19790,129122,124358,2001
19800,129096,124336,1951
19810,129078,124327,1929
19820,129074,124341,1877
19830,129080,124333,1836
19840,129083,124350,1751
19850,129088,124348,1809
19860,129086,124356,1865
19870,129065,124343,2000
19881,129087,124336,1917
19891,129103,124337,1936
19901,129085,124343,1872
19911,129079,124335,1831
19921,129096,124328,1801
19931,129092,124332,1840
19941,129078,124317,1766
19951,129081,124322,1824
19961,129083,124326,1840
19971,129095,124331,1850
19981,129083,124316,1802
19992,129093,124287,1764
20002,129076,124247,1661
20012,129048,124212,1728
20022,129031,124201,1715
20032,129011,124187,1680
20042,129000,124185,1692
20052,128991,124175,1680
20062,128967,124162,1687
20072,128958,124149,1626
20082,128958,124151,1662
20092,128946,124141,1611
20102,128930,124127,1682
20113,128947,124150,1708
20123,128960,124146,1781
20133,128977,124183,1808
20143,128992,124179,1781
20153,129011,124213,1717
20163,129019,124226,1639
20173,129025,124204,1667
20183,129010,124202,1593
20193,129004,124182,1535
20203,128998,124166,1696
20213,129003,124153,1594
20224,129000,124163,1551
20234,129017,124161,1783
20244,129022,124176,2128
20254,129035,124181,3153
20264,129048,124184,2524
20274,129049,124197,1600
20284,129036,124193,1400
20294,129027,124182,1513
20304,129015,124164,1486
20314,129012,124181,1457
20324,129010,124177,1504
20334,129005,124165,1463
20345,129022,124152,1535
20355,129012,124138,1488
20365,129000,124122,1586
20375,128987,124108,1594
20385,128992,124107,1619
20395,128996,124115,1718
20405,128992,124152,1698
20415,129025,124193,1655
20425,129048,124216,1840
20435,129077,124248,1749
20445,129090,124258,1816
20456,129080,124255,1745
20466,129075,124261,1766
20476,129032,124245,1654
20486,129011,124240,1751
20496,128977,124223,1576
20506,128938,124226,1455
20516,128902,124216,1456
20526,128906,124248,1440
20536,128894,124266,1395
20546,128889,124271,1362
20556,128904,124274,1433
20566,128910,124289,1454
20577,128938,124291,1415
20587,128976,124322,1447
20597,128990,124336,1444
20607,129012,124356,1535
20617,129014,124336,1535
20627,128995,124331,1534
20637,129011,124335,1619
20647,129004,124328,1556
20657,129006,124325,1600
20667,129002,124313,1633
20677,128986,124311,1493
20688,129007,124288,1704
20698,128999,124282,1680
20708,128987,124274,1662
20718,128978,124264,1689
20728,128983,124263,1698
20738,128974,124260,1669
20748,128972,124275,1623
20758,128954,124287,1699
20768,128967,124287,1772
20778,128983,124291,1769
20788,128968,124298,1776
20798,128992,124302,1882
20809,129001,124300,1847
20819,129029,124319,1846
20829,129044,124338,1776
20839,129053,124332,1845
20849,129063,124324,1762
20859,129068,124331,1764
20869,129075,124326,1745
20879,129072,124326,1737
20889,129087,124343,1667
20899,129094,124326,1865
20909,129086,124317,2069
20920,129112,124305,2778
20930,129127,124322,3457
20940,129130,124324,2295
20950,129135,124328,1650
20960,129138,124311,1713
20970,129138,124307,1812
20980,129117,124301,1805
20990,129138,124299,1776
21000,129112,124295,1793
21010,129125,124292,1821
21020,129118,124266,1801
21030,129108,124252,1820
21041,129091,124228,1815
21051,129119,124221,1834
21061,129083,124217,1899
21071,129089,124185,1897
21081,129088,124183,1859
21091,129064,124190,1938
21101,129053,124161,1985
21111,129043,124146,1964
21121,129010,124146,2001
21131,128973,124128,2081
21141,128910,124090,1968
21152,128863,124066,1979
21162,128801,124018,1936
21172,128752,124007,1899
21182,128715,124004,1794
21192,128695,124003,1751
21202,128671,124010,1862
21212,128659,123995,1755
21222,128641,123996,1764
21232,128635,124023,1877
21242,128649,124022,1789
21252,128663,124032,1853
21262,128663,124023,1809
21273,128662,124009,1829
21283,128664,124000,1904
21293,128666,124004,1833
21303,128650,124007,1872
21313,128667,124010,1923
21323,128679,124064,1849
21333,128693,124065,1947
21343,128722,124074,1930
21353,128719,124082,2024
21363,128711,124065,1935
21373,128709,124050,1978
21384,128698,124027,1952
21394,128685,123998,2007
21404,128658,123986,1956
21414,128649,123978,1949
21424,128647,123969,2066
21434,128623,123962,2082
21444,128611,123953,2138
21454,128618,123966,2137
21464,128633,123977,2267
21474,128642,123966,2243
21484,128655,123975,2071
21494,128663,123976,2109
21505,128685,123972,2114
21515,128699,123966,2000
21525,128707,123975,2036
21535,128702,123967,2030
21545,128714,123965,2030
21555,128701,123973,2013
21565,128717,123974,2086
21575,128721,123982,2391
21585,128733,123998,3317
21595,128732,123982,3479
21605,128744,124000,2245
21616,128770,124010,1871
21626,128801,124031,1939
21636,128839,124070,1907
21646,128895,124107,1951
21656,128929,124135,1892
21666,128963,124176,1857
21676,128997,124184,1922
21686,128995,124185,1995
21696,129015,124191,2022
21706,129032,124198,1952
21716,129045,124198,2069
21726,129059,124216,2020
21737,129115,124238,2032
21747,129144,124272,2102
21757,129171,124289,2114
21767,129188,124310,2112
21777,129192,124308,2176
21787,129162,124327,2099
21797,129138,124336,2114
21807,129118,124342,2062
21817,129094,124351,1964
21827,129076,124356,1883
21837,129061,124348,1835
21848,129050,124350,1839
21858,129045,124328,1772
21868,129022,124332,1725
21878,129027,124323,1758
21888,129015,124337,1744
21898,129030,124354,1680
21908,129035,124346,1697
21918,129038,124353,1716
21928,129047,124371,1769
21938,129056,124369,1822
21948,129071,124363,1750
21958,129075,124382,1859
21969,129093,124381,1715
21979,129123,124396,1825
21989,129135,124412,1811
21999,129154,124425,1681
22009,129148,124419,1840
22019,129149,124431,1879
22029,129151,124417,1777
22039,129147,124422,1818
22049,129116,124403,1734
22059,129106,124376,1742
22069,129088,124354,1807
22080,129078,124338,1808
22090,129065,124322,1887
22100,129049,124307,1923
22110,129028,124294,2011
22120,129018,124274,1867
22130,128995,124284,1887
22140,128980,124293,1840
22150,128999,124292,1702
22160,128998,124319,1743
22170,129006,124323,1733
22180,129026,124335,1757
22190,129032,124342,1735
22201,129061,124357,1737
22211,129082,124358,1904
22221,129084,124350,2256
22231,129091,124363,3335
22241,129096,124370,2809
22251,129116,124383,1743
22261,129120,124396,1570
22271,129122,124388,1629
22281,129107,124372,1569
22291,129101,124364,1618
22301,129099,124345,1620
22312,129096,124338,1614
22322,129119,124348,1680
22332,129121,124358,1729
22342,129139,124364,1713
22352,129154,124355,1623
22362,129141,124355,1731
22372,129122,124340,1713
22382,129137,124339,1760
22392,129115,124334,1834
22402,129129,124346,1808
22412,129106,124319,1881
22422,129099,124319,1887
22433,129077,124294,1820
22443,129060,124275,1821
22453,129007,124254,1796
22463,128954,124226,1772
22473,128886,124185,1681
22483,128834,124174,1628
22493,128802,124151,1518
22503,128781,124150,1492
22513,128761,124162,1555
22523,128760,124159,1520
22533,128786,124166,1461
22544,128815,124182,1466
22554,128827,124176,1525
22564,128822,124180,1404
22574,128847,124191,1586
22584,128864,124188,1631
22594,128855,124181,1564
22604,128850,124178,1535
22614,128849,124175,1646
22624,128848,124183,1621
22634,128856,124183,1610
22644,128871,124202,1668
22654,128873,124200,1711
22665,128899,124205,1682
22675,128908,124211,1557
22685,128898,124216,1697
22695,128905,124190,1634
22705,128901,124200,1626
22715,128906,124217,1723
22725,128910,124214,1749
22735,128919,124222,1824
22745,128904,124217,1753
22755,128908,124224,1833
22765,128904,124214,1824
22776,128926,124199,1716
22786,128933,124196,1762
22796,128925,124226,1669
22806,128943,124206,1712
22816,128949,124212,1678
22826,128942,124217,1712
22836,128938,124214,1701
22846,128937,124200,1690
22856,128932,124207,1791
22866,128949,124211,2095
22876,128943,124200,3056
22886,128950,124208,3108
22897,128962,124203,1879
22907,128972,124201,1607
22917,128974,124187,1676
22927,128965,124174,1621
22937,128953,124160,1666
22947,128959,124156,1659
22957,128952,124160,1727
22967,128968,124168,1744
22977,128982,124189,1723
22987,128987,124194,1816
22997,128988,124179,1808
23008,128990,124164,1776
23018,128993,124162,1826
23028,128992,124164,1852
23038,129014,124169,1845
23048,129013,124169,1999
23058,128996,124175,2035
23068,128984,124170,2006
23078,128957,124159,1915
23088,128928,124143,2018
23098,128874,124131,1936
23108,128830,124108,1936
23118,128804,124114,1856
23129,128798,124102,1780
23139,128777,124119,1684
23149,128798,124142,1696
23159,128805,124139,1621
23169,128818,124152,1685
23179,128829,124171,1638
23189,128822,124168,1637
23199,128849,124179,1686
23209,128829,124180,1615
23219,128854,124187,1646
23229,128837,124161,1676
23240,128850,124161,1648
23250,128850,124138,1744
23260,128856,124162,1771
23270,128855,124172,1696
23280,128873,124183,1790
23290,128897,124193,1630
23300,128910,124198,1807
23310,128921,124217,1744
23320,128905,124200,1719
23330,128902,124194,1855
23340,128896,124165,1808
23350,128882,124171,1760
23361,128903,124164,1936
23371,128915,124162,1879
23381,128920,124166,1972
23391,128913,124157,1999
23401,128919,124150,1993
23411,128914,124152,1964
23421,128911,124152,1904
23431,128927,124165,1827
23441,128937,124174,1859
23451,128948,124170,1861
23461,128956,124179,1918
23472,128980,124184,1872
23482,128990,124196,1885
23492,129015,124205,2103
23502,129045,124226,2551
23512,129051,124222,3857
23522,129072,124255,2862
23532,129076,124260,1869
23542,129108,124262,1745
23552,129122,124284,1890
23562,129124,124297,1801
23572,129147,124296,1818
23582,129181,124314,1871
23593,129214,124330,1799
23603,129242,124345,1857
23613,129262,124381,1931
23623,129281,124395,1890
23633,129308,124409,1958
23643,129321,124426,1936
23653,129333,124414,1894
23663,129336,124410,2026
23673,129317,124427,1968
23683,129320,124413,2000
23693,129315,124392,2098
23704,129298,124380,2047
23714,129250,124362,2065
23724,129212,124357,1954
23734,129180,124342,1949
23744,129128,124314,1928
23754,129074,124322,1889
23764,129047,124313,1702
23774,129027,124309,1716
23784,129003,124306,1740
23794,128987,124279,1672
23804,128967,124260,1754
23814,128953,124249,1743
23825,128943,124235,1674
23835,128947,124231,1687
23845,128944,124253,1727
23855,128947,124247,1712
23865,128965,124260,1703
23875,128960,124291,1742
23885,128975,124294,1789
23895,128986,124295,1750
23905,128997,124296,1762
23915,128975,124279,1691
23925,128971,124256,1737
23936,128969,124244,1765
23946,128949,124214,1629
23956,128927,124197,1814
23966,128919,124171,1860
23976,128911,124166,1817
23986,128879,124142,1827
23996,128873,124122,1863
24006,128859,124106,1904
24016,128829,124092,1861
24026,128832,124092,1840
24036,128819,124084,1838
24046,128823,124074,1830
24057,128834,124077,1775
24067,128844,124082,1783
24077,128860,124091,1774
24087,128860,124095,1835
24097,128887,124092,1903
24107,128890,124110,2066
24117,128874,124087,2694
24127,128872,124079,3835
24137,128883,124075,2581
24147,128879,124053,1781
24157,128871,124035,1638
24168,128885,124035,1803
24178,128895,124017,1799
24188,128905,124035,1674
24198,128897,124032,1824
24208,128916,123998,1876
24218,128903,124004,1812
24228,128899,124001,1840
24238,128910,124006,1915
24248,128924,124001,1922
24258,128924,124015,1809
24268,128946,124010,1911
24278,128928,124010,2019
24289,128955,124020,1975
24299,128960,124013,1990
24309,128957,123994,2074
24319,128910,123977,2026
24329,128870,123964,2005
24339,128828,123944,2025
24349,128777,123925,1925
24359,128736,123911,1905
24369,128692,123916,1849
24379,128667,123900,1830
24389,128635,123892,1722
24400,128631,123887,1728
24410,128628,123885,1711
24420,128631,123874,1675
24430,128630,123880,1771
24440,128641,123892,1767
24450,128637,123905,1783
24460,128647,123896,1809
24470,128646,123895,1729
24480,128666,123905,1792
24490,128649,123880,1777
24500,128653,123890,1849
24510,128654,123880,1764
24521,128664,123881,1748
24531,128684,123882,1831
24541,128692,123896,1809
24551,128681,123910,1808
24561,128693,123899,1827
24571,128675,123915,1875
24581,128692,123914,1866
24591,128693,123903,1942
24601,128668,123894,1932
24611,128649,123884,1875
24621,128661,123901,1808
24632,128664,123899,1783
24642,128692,123907,1727
24652,128704,123948,1730
24662,128714,123957,1711
24672,128747,123952,1735
24682,128747,123975,1693
24692,128747,123956,1730
24702,128755,123944,2000
24712,128737,123953,2559
24722,128721,123931,3571
24732,128731,123921,2497
24743,128747,123922,1692
24753,128736,123917,1670
24763,128747,123927,1721
24773,128754,123932,1680
24783,128770,123935,1699
24793,128796,123946,1695
24803,128799,123950,1781
24813,128810,123976,1715
24823,128825,123971,1748
24833,128837,123970,1863
24843,128849,123961,1835
24853,128825,123932,1914
24864,128837,123926,1856
24874,128854,123925,1907
24884,128857,123933,1979
24894,128864,123943,1953
24904,128860,123953,1922
24914,128834,123938,2059
24924,128790,123921,1987
24934,128766,123903,2000
24944,128723,123892,1920
24954,128668,123883,1854
24964,128647,123862,1835
24975,128617,123852,1777
24985,128603,123834,1762
24995,128590,123843,1776
25005,128591,123855,1788
25015,128591,123862,1738
25025,128614,123863,1763
25035,128612,123869,1710
25045,128630,123865,1774
25055,128628,123858,1775
25065,128644,123864,1779
25075,128644,123847,1723
25085,128640,123861,1804
25096,128667,123866,1788
25106,128691,123886,1774
25116,128702,123905,1804
25126,128736,123910,1788
25136,128745,123915,1835
25146,128749,123927,1760
25156,128754,123934,1890
25166,128763,123940,1943
25176,128780,123956,1904
25186,128784,123956,1918
25196,128783,123966,1969
25207,128809,123975,1801
25217,128827,123971,1872
25227,128841,123999,1757
25237,128857,124001,1850
25247,128864,124009,1791
25257,128878,124011,1751
25267,128874,124029,1783
25277,128890,124035,1794
25287,128913,124041,1774
25297,128927,124045,2135
25307,128937,124049,2886
25317,128938,124054,3497
25328,128960,124044,2174
25338,128990,124066,1665
25348,129001,124090,1737
25358,129011,124097,1701
25368,129018,124092,1715
25378,129033,124106,1678
25388,129043,124117,1725
25398,129052,124133,1815
25408,129068,124132,1800
25418,129076,124128,1776
25428,129076,124145,1907
25439,129098,124144,1865
25449,129120,124156,1912
25459,129119,124164,1908
25469,129134,124167,2000
25479,129144,124168,1984
25489,129135,124169,1968
25499,129115,124163,1979
25509,129102,124155,2011
25519,129051,124124,1973
25529,129001,124125,1917
25539,128954,124094,1906
25549,128928,124102,1879
25560,128894,124085,1776
25570,128886,124076,1725
25580,128878,124066,1711
25590,128862,124067,1727
25600,128847,124059,1707
25610,128841,124040,1664
25620,128846,124060,1713
25630,128850,124058,1648
25640,128842,124071,1687
25650,128860,124074,1636
25660,128877,124079,1734
25671,128879,124081,1738
25681,128912,124067,1729
25691,128915,124069,1723
25701,128925,124072,1749
25711,128923,124060,1722
25721,128921,124048,1797
25731,128897,124045,1773
25741,128901,124028,1758
25751,128900,124031,1799
25761,128892,124030,1847
25771,128873,124028,1795
25781,128872,124027,1803
25792,128879,123991,1945
25802,128864,123978,1884
25812,128840,123962,1853
25822,128844,123932,1840
25832,128811,123928,1798
25842,128804,123926,1755
25852,128799,123914,1763
25862,128810,123920,1793
25872,128811,123931,1760
25882,128828,123931,1797
25892,128820,123902,1917
25902,128820,123874,2178
25913,128812,123871,3155
25923,128820,123835,3297
25933,128798,123813,2132
25943,128781,123805,1711
25953,128782,123805,1728
25963,128785,123803,1763
25973,128766,123802,1780
25983,128778,123825,1755
25993,128802,123850,1744
26003,128814,123853,1760
26013,128855,123881,1785
26024,128882,123912,1849
26034,128911,123928,1806
26044,128941,123938,1922
26054,128968,123943,1904
26064,128965,123940,1925
26074,128964,123953,1918
26084,128970,123974,1968
26094,128957,123972,2055
26104,128975,123990,2057
26114,128957,123991,2035
26124,128931,123986,2003
26134,128899,123973,1984
26145,128898,123975,1907
26155,128857,123980,1922
26165,128830,123954,1832
26175,128808,123953,1802
26185,128794,123964,1818
26195,128799,123990,1745
26205,128818,124010,1758
26215,128838,124047,1717
26225,128871,124071,1772
26235,128901,124096,1723
26245,128930,124118,1795
26256,128960,124135,1840
26266,128970,124138,1760
26276,128996,124140,1857
26286,128984,124140,1852
26296,129002,124152,1827
26306,129017,124173,1835
26316,129040,124182,1800
26326,129059,124210,1775
26336,129095,124235,1775
26346,129107,124240,1883
26356,129117,124241,1906
26367,129132,124234,1883
26377,129129,124213,1849
26387,129123,124216,1862
26397,129109,124195,1813
26407,129078,124181,1727
26417,129049,124139,1776
26427,129024,124107,1679
26437,128983,124084,1686
26447,128969,124060,1598
26457,128944,124052,1609
26467,128931,124047,1585
26477,128913,124040,1603
26488,128925,124028,1643
26498,128932,124018,1966
26508,128929,124013,2755
26518,128918,124002,3378
26528,128912,123981,2187
26538,128883,123959,1722
26548,128870,123927,1679
26558,128853,123917,1683
26568,128852,123908,1582
26578,128844,123913,1642
26588,128839,123906,1666
26599,128870,123920,1673
26609,128860,123919,1695
26619,128876,123919,1680
26629,128891,123917,1713
26639,128882,123905,1779
26649,128876,123913,1748
26659,128874,123915,1838
26669,128874,123905,1799
26679,128877,123931,1872
26689,128874,123926,1895
26699,128874,123932,1882
26709,128851,123926,1908
26720,128845,123920,1897
26730,128833,123918,1770
26740,128797,123920,1857
26750,128763,123924,1678
26760,128740,123906,1672
26770,128715,123909,1711
26780,128697,123892,1651
26790,128677,123879,1611
26800,128655,123870,1665
26810,128649,123852,1604
26820,128637,123832,1584
26831,128646,123823,1681
26841,128649,123817,1680
26851,128642,123823,1738
26861,128648,123807,1654
26871,128642,123823,1681
26881,128641,123847,1693
26891,128641,123853,1697
26901,128671,123855,1739
26911,128660,123854,1770
26921,128668,123837,1783
26931,128654,123804,1697
26941,128630,123792,1719
26952,128622,123777,1794
26962,128600,123763,1793
26972,128611,123754,1837
26982,128596,123750,1898
26992,128599,123742,1930
27002,128572,123741,1946
27012,128565,123715,1789
27022,128546,123719,1776
27032,128549,123716,1705
27042,128543,123727,1751
27052,128565,123722,1756
27063,128572,123725,1765
27073,128585,123731,1765
27083,128595,123736,1777
27093,128597,123744,1860
27103,128601,123725,2198
27113,128587,123735,3008
27123,128576,123735,3402
27133,128592,123742,2083
27143,128601,123746,1773
27153,128604,123754,1743
27163,128617,123769,1732
27173,128638,123780,1808
27184,128643,123764,1768
27194,128678,123790,1827
27204,128684,123797,1803
27214,128703,123799,1822
27224,128707,123811,1899
27234,128703,123805,1871
27244,128705,123817,1928
27254,128705,123789,1915
27264,128708,123795,1957
27274,128713,123791,2007
27284,128708,123806,1985
27295,128703,123778,2000
27305,128701,123783,2112
27315,128658,123755,1994
27325,128606,123719,2043
27335,128565,123705,1999
27345,128494,123691,1891
27355,128476,123695,1919
27365,128447,123689,1861
27375,128431,123684,1746
27385,128403,123676,1718
27395,128390,123666,1815
27406,128404,123658,1765
27416,128411,123652,1744
27426,128412,123668,1713
27436,128432,123669,1783
27446,128433,123678,1727
27456,128436,123684,1817
27466,128454,123697,1763
27476,128460,123725,1742
27486,128492,123742,1813
27496,128504,123761,1737
27506,128531,123767,1808
27516,128542,123777,1775
27527,128580,123771,1803
27537,128588,123764,1811
27547,128572,123749,1855
27557,128563,123719,1853
27567,128530,123702,1808
27577,128524,123696,1866
27587,128501,123681,1859
27597,128498,123671,1967
27607,128496,123659,1989
27617,128478,123647,1957
27627,128483,123645,1934
27638,128496,123654,1870
27648,128525,123668,1744
27658,128553,123686,1903
27668,128570,123693,1771
27678,128599,123715,1793
27688,128617,123747,1785
27698,128615,123755,1756
27708,128633,123753,1908
27718,128626,123759,2291
27728,128631,123745,3133
27738,128640,123739,3295
27748,128623,123726,2113
27759,128638,123722,1711
27769,128644,123721,1773
27779,128660,123740,1744
27789,128677,123759,1747
27799,128704,123765,1710
27809,128713,123792,1737
27819,128721,123795,1698
27829,128739,123802,1801
27839,128747,123823,1839
27849,128757,123805,1730
27859,128740,123772,1767
27870,128746,123776,1949
27880,128752,123776,1804
27890,128773,123796,1941
27900,128782,123803,1979
27910,128780,123804,1983
27920,128748,123803,1942
27930,128724,123785,1984
27940,128676,123783,2078
27950,128641,123761,1925
27960,128598,123773,1949
27970,128553,123752,1831
27981,128519,123729,1776
27991,128509,123728,1701
28001,128502,123744,1691
28011,128478,123741,1711
28021,128490,123753,1741
28031,128493,123752,1764
28041,128498,123770,1734
28051,128509,123786,1663
28061,128511,123784,1718
28071,128505,123781,1711
28081,128492,123759,1734
28091,128480,123742,1787
28102,128478,123731,1719
28112,128473,123726,1841
28122,128461,123712,1821
28132,128459,123699,1734
28142,128459,123696,1814
28152,128447,123697,1754
28162,128441,123673,1778
28172,128431,123669,1774
28182,128425,123668,1797
28192,128424,123670,1783
28202,128417,123662,1846
28213,128427,123654,1869
28223,128435,123642,1877
28233,128436,123626,1989
28243,128401,123613,2035
28253,128414,123609,1920
28263,128417,123610,1913
28273,128387,123579,1888
28283,128390,123599,1872
28293,128390,123598,1811
28303,128410,123612,1856
28313,128437,123605,1951
28323,128436,123632,1831
28334,128483,123639,1875
28344,128509,123665,2192
28354,128538,123681,2721
28364,128557,123658,3826
28374,128563,123670,2678
28384,128556,123670,1939
28394,128553,123667,1773
28404,128566,123655,1805
28414,128566,123655,1864
28424,128567,123650,1842
28434,128581,123647,1872
28445,128599,123630,1861
28455,128623,123661,1881
28465,128642,123673,1909
28475,128671,123705,1979
28485,128692,123717,1962
28495,128704,123721,1936
28505,128712,123712,2041
28515,128721,123724,2086
28525,128717,123717,2046
28535,128701,123700,2153
28545,128648,123651,2222
28556,128618,123640,2177
28566,128577,123615,2145
28576,128550,123614,2081
28586,128514,123615,1949
28596,128473,123622,2013
28606,128446,123627,1957
28616,128418,123617,1786
28626,128393,123614,1855
28636,128364,123604,1775
28646,128344,123611,1699
28656,128329,123596,1776
28666,128335,123593,1697
28677,128348,123629,1739
28687,128381,123632,1743
28697,128392,123653,1733
28707,128395,123678,1677
28717,128434,123680,1769
28727,128430,123691,1712
28737,128436,123712,1670
28747,128442,123728,1665
28757,128475,123750,1675
28767,128492,123763,1667
28777,128501,123769,1751
28788,128518,123763,1698
28798,128528,123742,1648
28808,128500,123739,1721
28818,128497,123709,1749
28828,128464,123705,1717
28838,128452,123687,1669
28848,128436,123687,1711
28858,128408,123682,1719
28868,128411,123672,1781
28878,128393,123669,1787
28888,128382,123638,1849
28898,128367,123631,1826
28909,128371,123608,1829
28919,128379,123624,1685
28929,128366,123612,1783
28939,128378,123633,1701
28949,128385,123666,1645
28959,128417,123687,1655
28969,128442,123730,1679
28979,128477,123760,1605
28989,128482,123768,1746
28999,128496,123753,1966
29009,128488,123746,2433
29020,128503,123733,3371
29030,128517,123719,2351
29040,128510,123712,1676
29050,128504,123695,1665
29060,128510,123707,1741
29070,128500,123703,1786
29080,128476,123696,1771
29090,128475,123680,1778
29100,128482,123684,1744
29110,128491,123691,1772
29120,128511,123721,1861
29130,128523,123712,1891
29141,128552,123714,1815
29151,128583,123720,1969
29161,128587,123710,1963
29171,128554,123699,1987
29181,128559,123694,1988
29191,128516,123671,2025
29201,128488,123658,1981
29211,128464,123637,1999
29221,128421,123628,1964
29231,128382,123619,2055
29241,128360,123614,1941
29252,128329,123610,1906
29262,128313,123605,1831
29272,128294,123614,1781
29282,128260,123606,1729
29292,128269,123587,1813
29302,128236,123597,1709
29312,128215,123563,1808
29322,128209,123558,1755
29332,128216,123563,1794
29342,128218,123555,1743
29352,128200,123548,1793
29363,128218,123537,1895
29373,128211,123505,1885
29383,128181,123479,1840
29393,128168,123428,1872
29403,128119,123410,1814
29413,128104,123391,1896
29423,128085,123396,1833
29433,128095,123383,1843
29443,128092,123383,1808
29453,128105,123392,1805
29463,128088,123373,1820
29473,128067,123368,1747
29484,128068,123320,1832
29494,128043,123315,1770
29504,128013,123274,1969
29514,127982,123259,1943
29524,127965,123262,1970
29534,127945,123244,2092
29544,127935,123237,1971
29554,127921,123225,1885
29564,127906,123222,1814
29574,127911,123221,1796
29584,127901,123219,1808
29595,127921,123219,1823
29605,127940,123226,1899
29615,127946,123244,1813
29625,127954,123242,1839
29635,127972,123281,2003
29645,127988,123285,2256
29655,127990,123308,3152
29665,128026,123308,3423
29675,128035,123348,2112
29685,128042,123374,1749
29695,128070,123402,1893
29705,128098,123432,1922
29716,128166,123462,1824
29726,128189,123489,1860
29736,128200,123490,1956
29746,128204,123486,1840
29756,128196,123473,1924
29766,128194,123487,1973
29776,128187,123472,2000
29786,128194,123486,1974
29796,128182,123494,1973
29806,128184,123483,1985
29816,128184,123484,2054
29827,128184,123460,2007
29837,128157,123435,2073
29847,128113,123409,2007
29857,128071,123380,2088
29867,128001,123333,2000
29877,127924,123298,1985
29887,127858,123291,1911
29897,127792,123258,1831
29907,127774,123260,1770
29917,127732,123224,1841
29927,127692,123212,1706
29938,127683,123198,1625
29948,127662,123169,1713
29958,127651,123148,1646
29968,127625,123123,1707
29978,127576,123081,1647
29988,127548,123048,1648
29998,127530,123045,1639
30008,127509,123055,1707
30018,127522,123032,1698
30028,127488,123013,1689
30038,127485,123006,1737
30048,127474,123000,1747
30059,127474,122992,1777
30069,127485,122979,1744
30079,127479,122990,1751
30089,127480,122980,1686
30099,127481,122975,1734
30109,127472,122988,1711
30119,127467,122964,1669
30129,127462,122968,1774
30139,127444,122975,1744
30149,127447,122957,1800
30159,127443,122957,1815
30170,127463,122956,1855
30180,127496,122979,1729
30190,127515,123003,1731
30200,127538,123032,1739
30210,127563,123042,1633
30220,127568,123070,1597
30230,127580,123065,1679
30240,127597,123077,1680
30250,127598,123085,1650
30260,127610,123099,1783
30270,127627,123111,2096
30280,127653,123104,2944
30291,127674,123104,2969
30301,127681,123110,1872
30311,127696,123103,1590
30321,127690,123103,1629
30331,127683,123097,1662
30341,127694,123121,1628
30351,127717,123148,1629
30361,127748,123176,1663
30371,127756,123174,1696
30381,127747,123152,1667
30391,127748,123150,1645
30402,127746,123136,1757
30412,127768,123131,1747
30422,127757,123138,1838
30432,127765,123129,1907
30442,127746,123109,1937
30452,127711,123102,1974
30462,127681,123060,2036
30472,127637,123062,2032
30482,127612,123051,2117
30492,127556,123043,2112
30502,127497,122988,2255
30512,127424,122959,2180
30523,127398,122934,2112
30533,127352,122926,2096
30543,127332,122921,2073
30553,127298,122916,1979
30563,127295,122932,1866
30573,127274,122942,1983
30583,127290,122958,2047
30593,127306,122969,1989
30603,127321,122978,1948
30613,127314,122977,1999
30623,127316,122981,1977
30634,127337,122975,1967
30644,127350,122981,2000
30654,127336,123003,1849
30664,127345,122981,2009
30674,127350,122990,1969
30684,127363,122990,1923
30694,127366,122991,1919
30704,127371,122964,1947
30714,127367,122961,1935
30724,127367,122962,1883
30734,127365,122952,1893
30745,127362,122948,1915
30755,127370,122929,1982
30765,127389,122922,1989
30775,127393,122942,2039
30785,127418,122937,1925
30795,127408,122942,1980
30805,127422,122965,1881
30815,127453,122980,1811
30825,127460,122986,1839
30835,127483,122998,1792
30845,127504,122998,1783
30855,127533,123013,1844
30866,127542,122995,1821
30876,127551,122995,2035
30886,127546,123005,2501
30896,127557,123010,3564
30906,127573,123023,2476
30916,127594,123064,1781
30926,127640,123093,1701
30936,127678,123144,1793
30946,127741,123202,1749
30956,127779,123244,1693
30966,127836,123278,1774
30977,127890,123316,1790
30987,127936,123340,1776
30997,127972,123374,1793
31007,128007,123389,1799
31017,128045,123400,1851
31027,128067,123419,1829
31037,128097,123442,1940
31047,128123,123451,1926
31057,128157,123473,1901
31067,128159,123448,1946
31077,128123,123412,2032
31087,128088,123380,1998
31098,128064,123342,2022
31108,127994,123322,2025
31118,127954,123290,1969
31128,127888,123276,2027
31138,127844,123268,1935
31148,127824,123257,1945
31158,127793,123263,1886
31168,127796,123273,1857
31178,127777,123270,1845
31188,127782,123278,1909
31198,127776,123258,1839
31209,127789,123253,1883
31219,127789,123239,1884
31229,127786,123210,1906
31239,127773,123180,1917
31249,127744,123167,1943
31259,127723,123169,1948
31269,127724,123160,1898
31279,127735,123164,1889
31289,127750,123187,1983
31299,127756,123197,1917
31309,127756,123184,1961
31319,127753,123161,1951
31330,127761,123150,1969
31340,127762,123129,2020
31350,127747,123130,2032
31360,127751,123133,2030
31370,127744,123123,2084
31380,127731,123140,2019
31390,127749,123145,1951
31400,127747,123156,2001
31410,127754,123126,1909
31420,127729,123097,1919
31430,127713,123082,1926
31441,127711,123041,1872
31451,127721,123047,1904
31461,127715,123008,1875
31471,127654,122953,2128
31481,127620,122894,2493
31491,127576,122878,3649
31501,127543,122828,2733
31511,127504,122776,1839
31521,127448,122703,1697
31531,127415,122658,1768
31541,127358,122591,1807
31552,127337,122591,1716
31562,127324,122560,1929
31572,127325,122566,1865
31582,127322,122575,2061
31592,127336,122571,2001
31602,127345,122574,1997
31612,127361,122584,2037
31622,127368,122589,2127
31632,127377,122605,2157
31642,127393,122628,2147
31652,127396,122585,2225
31662,127373,122571,2190
31673,127372,122530,2271
31683,127347,122515,2298
31693,127311,122515,2182
31703,127277,122505,2266
31713,127261,122505,2123
31723,127238,122536,2072
31733,127231,122554,2085
31743,127220,122566,2047
31753,127221,122603,1923
31763,127224,122616,1950
31773,127222,122608,1877
31784,127233,122626,1877
31794,127247,122613,1893
31804,127261,122632,1921
31814,127270,122636,1908
31824,127289,122651,1898
31834,127292,122644,1888
31844,127300,122628,1875
31854,127305,122627,1921
31864,127306,122640,1900
31874,127323,122662,1801
31884,127360,122667,1898
31894,127388,122686,1947
31905,127441,122710,1877
31915,127477,122718,1967
31925,127489,122730,1970
31935,127482,122727,1996
31945,127497,122717,1982
31955,127496,122726,1885
31965,127505,122715,1909
31975,127514,122747,1838
31985,127513,122766,1782
31995,127542,122775,1772
32005,127571,122806,1748
32016,127589,122809,1784
32026,127610,122816,1668
32036,127645,122841,1799
32046,127659,122850,2017
32056,127701,122883,2784
32066,127719,122926,3467
32076,127754,122950,2165
32086,127793,122970,1535
32096,127821,122992,1648
32106,127845,123028,1612
32116,127883,123043,1603
32126,127918,123061,1654
32137,127947,123075,1661
32147,127986,123089,1670
32157,128003,123092,1636
32167,128004,123113,1680
32177,128025,123109,1699
32187,128035,123106,1671
32197,128048,123091,1728
32207,128045,123107,1713
32217,128070,123105,1773
32227,128062,123119,1741
32237,128091,123133,1841
32248,128094,123124,1811
32258,128088,123130,1844
32268,128084,123136,1808
32278,128057,123105,1827
32288,128019,123090,1778
32298,127960,123088,1655
32308,127907,123052,1671
32318,127867,123025,1616
32328,127822,123004,1606
32338,127800,123011,1535
32348,127789,122994,1572
32358,127787,123000,1606
32369,127787,123009,1585
32379,127826,123009,1535
32389,127844,123036,1611
32399,127852,123038,1680
32409,127874,123061,1647
32419,127888,123075,1645
32429,127884,123056,1636
32439,127892,123062,1683
32449,127889,123086,1639
32459,127915,123087,1685
32469,127937,123099,1658
32480,127969,123113,1707
32490,127997,123126,1793
32500,128034,123154,1755
32510,128059,123154,1718
32520,128068,123151,1665
32530,128051,123150,1573
32540,128047,123150,1579
32550,128059,123155,1487
32560,128047,123147,1613
32570,128047,123138,1514
32580,128051,123116,1641
32590,128030,123098,1668
32601,128049,123108,1808
32611,128067,123130,2559
32621,128080,123137,3370
32631,128092,123151,2214
32641,128118,123164,1601
32651,128126,123160,1660
32661,128119,123171,1785
32671,128124,123151,1812
32681,128131,123140,1721
32691,128137,123136,1733
32701,128133,123135,1804
32712,128154,123138,1663
32722,128186,123167,1828
32732,128203,123168,1840
32742,128220,123165,1761
32752,128238,123162,1845
32762,128234,123155,1777
32772,128228,123151,1873
32782,128231,123149,1861
32792,128244,123154,1954
32802,128225,123139,1886
32812,128208,123131,1907
32822,128160,123092,1841
32833,128121,123071,1853
32843,128076,123047,1868
32853,128039,123014,1808
32863,127983,122987,1776
32873,127940,122962,1689
32883,127902,122960,1728
32893,127882,122948,1669
32903,127879,122966,1699
32913,127865,122947,1714
32923,127852,122942,1754
32933,127846,122937,1747
32944,127864,122924,1755
32954,127881,122927,1782
32964,127890,122961,1744
32974,127923,122961,1750
32984,127940,123000,1764
32994,127973,123028,1741
33004,127993,123034,1786
33014,127998,123040,1876
33024,128017,123068,1913
33034,128032,123054,1919
33044,128040,123043,1994
33055,128053,123052,1915
33065,128068,123049,1882
33075,128071,123081,1867
33085,128105,123116,1850
33095,128140,123140,1767
33105,128166,123194,1809
33115,128171,123202,1749
33125,128200,123229,1783
33135,128238,123260,1803
33145,128270,123294,1857
33155,128301,123328,2249
33165,128322,123355,3670
33176,128375,123370,2800
33186,128405,123392,1891
33196,128444,123412,1616
33206,128449,123441,1839
33216,128462,123435,1762
33226,128457,123446,1872
33236,128496,123450,1850
33246,128504,123448,1908
33256,128516,123487,1888
33266,128550,123504,1912
33276,128579,123514,1952
33287,128611,123517,2071
33297,128645,123532,2075
33307,128658,123539,2192
33317,128674,123541,2255
33327,128693,123551,2319
33337,128684,123575,2322
33347,128688,123562,2299
33357,128671,123536,2391
33367,128620,123524,2411
33377,128581,123501,2302
33387,128529,123479,2329
33398,128507,123460,2323
33408,128470,123446,2149
33418,128453,123450,2181
33428,128438,123439,2164
33438,128443,123426,2157
33448,128426,123435,2112
33458,128431,123462,2142
33468,128454,123468,2100
33478,128474,123508,2149
33488,128502,123530,2037
33498,128535,123545,2196
33508,128541,123547,2162
33519,128572,123550,2128
33529,128595,123559,2153
33539,128597,123577,2176
33549,128625,123588,2123
33559,128654,123609,2085
33569,128687,123610,2172
33579,128687,123631,2186
33589,128710,123640,2137
33599,128730,123671,2181
33609,128746,123672,2135
33619,128761,123669,2097
33630,128776,123679,1983
33640,128793,123677,1978
33650,128804,123673,1957
33660,128800,123643,1901
33670,128814,123635,1936
33680,128794,123628,1904
33690,128772,123631,1851
33700,128798,123644,1883
33710,128803,123657,2194
33720,128829,123668,3152
33730,128841,123670,3670
33740,128850,123684,2267
33751,128878,123684,1659
33761,128904,123725,1797
33771,128934,123726,1725
33781,128946,123740,1631
33791,128967,123752,1653
33801,128987,123764,1759
33811,128990,123753,1731
33821,128999,123750,1780
33831,128981,123742,1747
33841,128987,123748,1783
33851,128998,123746,1729
33862,129018,123758,1827
33872,129040,123758,1840
33882,129060,123779,1843
33892,129074,123769,1951
33902,129052,123767,1957
33912,129032,123767,1900
33922,128997,123758,1899
33932,128950,123734,1866
33942,128898,123731,1840
33952,128843,123711,1840
33962,128802,123686,1736
33972,128763,123668,1730
33983,128742,123661,1622
33993,128739,123655,1722
34003,128708,123648,1535
34013,128699,123639,1631
34023,128700,123641,1663
34033,128690,123639,1646
34043,128693,123645,1697
34053,128705,123663,1698
34063,128706,123657,1712
34073,128697,123634,1744
34083,128684,123622,1770
34094,128690,123622,1734
34104,128709,123632,1761
34114,128723,123646,1776
34124,128744,123656,1727
34134,128752,123655,1703
34144,128760,123675,1780
34154,128768,123686,1767
34164,128781,123690,1764
34174,128791,123698,1846
34184,128786,123687,1840
34194,128771,123657,1947
34204,128751,123643,1872
34215,128752,123640,1803
34225,128770,123642,1772
34235,128772,123631,1688
34245,128774,123635,1685
34255,128773,123654,1719
34265,128793,123685,1713
34275,128830,123713,1751
34285,128853,123725,1787
34295,128885,123753,2057
34305,128897,123734,2519
34315,128910,123743,3757
34325,128912,123737,2777
34336,128942,123732,1871
34346,128951,123726,1765
34356,128959,123733,1794
34366,128975,123745,1770
34376,128981,123758,1801
34386,128997,123784,1793
34396,129010,123780,1811
34406,129034,123799,1808
34416,129036,123790,1909
34426,129049,123782,1924
34436,129041,123771,1897
34447,129058,123775,1967
34457,129084,123792,1936
34467,129109,123800,2036
34477,129113,123788,1981
34487,129120,123801,2000
34497,129103,123790,2067
34507,129054,123779,2091
34517,129021,123775,2015
34527,128979,123763,1973
34537,128941,123746,2035
34547,128916,123742,1851
34557,128893,123708,1859
34568,128882,123717,1770
34578,128874,123747,1712
34588,128879,123731,1679
34598,128880,123732,1599
34608,128881,123729,1680
34618,128876,123727,1687
34628,128869,123760,1593
34638,128896,123775,1698
34648,128900,123798,1679
34658,128934,123823,1707
34668,128959,123862,1652
34679,129002,123886,1692
34689,129047,123928,1647
34699,129077,123954,1644
34709,129109,123970,1666
34719,129120,123967,1623
34729,129115,123972,1674
34739,129113,123960,1609
34749,129123,123966,1636
34759,129121,123964,1635
34769,129110,123944,1608
34779,129117,123945,1637
34790,129113,123948,1667
34800,129137,123956,1712
34810,129134,123969,1717
34820,129156,123986,1743
34830,129164,123999,1744
34840,129175,123984,1671
34850,129148,123974,1644
34860,129150,123969,1553
34870,129150,123974,1524
34880,129154,123973,1535
34890,129163,123982,1493
34900,129179,123996,1438
34911,129200,123986,1465
34921,129225,124017,1553
34931,129250,124034,1911
34941,129271,124054,2685
34951,129302,124064,2975
34961,129309,124083,1913
34971,129309,124083,1320
34981,129318,124078,1309
34991,129325,124079,1437
35001,129304,124067,1387
35011,129314,124061,1366
35022,129350,124071,1445
35032,129375,124097,1371
35042,129378,124127,1455
35052,129404,124107,1412
35062,129400,124125,1465
35072,129401,124117,1439
35082,129408,124125,1526
35092,129413,124129,1466
35102,129414,124117,1593
35112,129401,124111,1602
35122,129383,124089,1649
35132,129346,124071,1607
35143,129332,124058,1535
35153,129282,124051,1552
35163,129259,124035,1535
35173,129214,124028,1469
35183,129180,124021,1441
35193,129156,124035,1392
35203,129156,124024,1352
35213,129158,124030,1339
35223,129170,124044,1275
35233,129160,124044,1265
35243,129164,124043,1301
35254,129182,124038,1296
35264,129199,124037,1303
35274,129202,124053,1401
35284,129214,124039,1319
35294,129211,124029,1392
35304,129204,124048,1377
35314,129213,124048,1370
35324,129238,124097,1332
35334,129247,124099,1397
35344,129270,124102,1382
35354,129295,124124,1424
35365,129327,124116,1451
35375,129331,124094,1407
35385,129328,124088,1455
35395,129339,124083,1452
35405,129341,124084,1373
35415,129329,124079,1453
35425,129345,124086,1557
35435,129332,124099,1488
35445,129349,124100,1578
35455,129353,124098,1487
35465,129350,124102,1589
35475,129379,124123,1606
35486,129412,124148,1565
35496,129440,124187,1715
35506,129489,124213,1683
35516,129507,124234,1777
35526,129522,124235,1695
35536,129514,124242,1638
35546,129527,124236,1535
35556,129532,124243,1561
35566,129551,124246,1581
35576,129550,124243,1605
35586,129566,124252,1525
35597,129589,124252,1677
35607,129621,124277,1828
35617,129637,124299,2266
35627,129642,124289,3309
35637,129648,124295,2498
35647,129659,124305,1719
35657,129676,124305,1502
35667,129671,124296,1629
35677,129650,124289,1616
35687,129668,124271,1635
35697,129645,124250,1567
35708,129650,124246,1649
35718,129642,124228,1656
35728,129656,124250,1682
35738,129671,124260,1808
35748,129697,124273,1765
35758,129680,124285,1827
35768,129695,124277,1776
35778,129701,124297,1834
35788,129706,124305,1917
35798,129681,124296,1984
35808,129672,124276,1971
35818,129626,124273,1975
35829,129605,124250,1948
35839,129582,124244,2015
35849,129533,124246,1892
35859,129513,124254,1863
35869,129499,124266,1848
35879,129481,124275,1888
35889,129478,124277,1781
35899,129478,124272,1789
35909,129468,124269,1773
35919,129466,124260,1789
35929,129465,124242,1812
35940,129480,124243,1755
35950,129492,124261,1824
35960,129513,124267,1877
35970,129517,124263,1828
35980,129526,124271,1843
35990,129551,124294,1845
36000,129545,124291,1890
36010,129549,124287,1863
36020,129563,124306,1950
36030,129579,124310,1913
36040,129600,124315,1903
36051,129630,124329,1871
36061,129653,124338,1969
36071,129678,124357,1969
36081,129677,124355,1885
36091,129692,124349,1939
36101,129696,124353,1968
36111,129688,124350,1901
36121,129685,124348,1934
36131,129667,124349,2009
36141,129681,124348,2040
36151,129662,124343,2009
36161,129676,124369,2106
36172,129703,124372,2016
36182,129747,124378,1921
36192,129754,124388,1857
36202,129772,124416,1839
36212,129798,124411,1845
36222,129808,124418,1728
36232,129808,124413,1854
36242,129813,124418,1803
36252,129829,124413,1876
36262,129822,124411,2178
36272,129823,124387,2898
36283,129853,124394,3344
36293,129853,124392,2256
36303,129868,124402,1789
36313,129891,124410,1777
36323,129913,124433,1798
36333,129911,124433,1865
36343,129920,124421,1846
36353,129890,124385,1853
36363,129882,124383,1933
36373,129880,124360,2015
36383,129863,124364,1986
36393,129867,124358,1998
36404,129882,124354,2001
36414,129892,124367,2041
36424,129897,124349,2210
36434,129875,124342,2174
36444,129865,124329,2207
36454,129836,124314,2310
36464,129831,124312,2356
36474,129777,124317,2285
36484,129752,124311,2331
36494,129701,124279,2317
36504,129650,124256,2291
36515,129632,124234,2286
36525,129608,124241,2192
36535,129590,124243,2202
36545,129593,124252,2337
36555,129606,124259,2199
36565,129609,124289,2228
36575,129619,124312,2264
36585,129640,124319,2289
36595,129662,124334,2320
36605,129665,124330,2302
36615,129672,124348,2339
36626,129693,124356,2370
36636,129689,124334,2324
36646,129692,124340,2459
36656,129703,124331,2352
36666,129709,124350,2433
36676,129722,124377,2320
36686,129754,124385,2396
36696,129752,124401,2384
36706,129765,124415,2362
36716,129762,124412,2399
36726,129778,124410,2307
36736,129759,124389,2340
36747,129771,124378,2304
36757,129765,124358,2317
36767,129751,124365,2317
36777,129729,124338,2315
36787,129732,124346,2393
36797,129739,124348,2398
36807,129730,124342,2391
36817,129728,124346,2311
36827,129746,124365,2301
36837,129746,124358,2188
36847,129769,124360,2185
36858,129769,124366,2133
36868,129787,124356,2113
36878,129775,124343,2133
36888,129765,124314,2100
36898,129731,124277,2180
36908,129710,124245,2505
36918,129674,124227,3233
36928,129657,124201,3832
36938,129622,124178,2442
36948,129595,124153,2032
36958,129584,124137,1979
36968,129567,124141,1951
36979,129591,124133,1997
36989,129602,124141,1932
36999,129608,124142,1882
37009,129606,124140,1886
37019,129596,124118,1997
37029,129575,124116,1949
37039,129558,124087,1893
37049,129539,124071,1980
37059,129535,124083,2076
37069,129529,124079,1988
37079,129541,124087,1999
37090,129558,124089,2019
37100,129571,124077,2109
37110,129534,124086,2098
37120,129527,124073,2032
37130,129519,124070,2057
37140,129487,124094,2005
37150,129479,124104,1937
37160,129456,124124,1882
37170,129450,124118,1808
37180,129429,124112,1799
37190,129413,124116,1745
37200,129404,124097,1693
37211,129418,124115,1689
37221,129431,124111,1759
37231,129434,124109,1655
37241,129433,124091,1714
37251,129433,124110,1696
37261,129411,124100,1745
37271,129413,124104,1723
37281,129410,124105,1743
37291,129410,124095,1763
37301,129378,124076,1826
37311,129366,124033,1806
37322,129330,124000,1777
37332,129308,123943,1755
37342,129245,123905,1775
37352,129190,123829,1749
37362,129099,123772,1762
37372,129049,123750,1799
37382,128989,123718,1854
37392,128958,123677,1788
37402,128934,123662,1814
37412,128902,123656,1906
37422,128867,123633,1877
37432,128845,123623,1873
37443,128837,123629,1770
37453,128859,123642,1716
37463,128860,123661,1691
37473,128865,123667,1606
37483,128874,123674,1659
37493,128864,123696,1647
37503,128883,123707,1669
37513,128888,123719,1724
37523,128883,123716,2094
37533,128888,123722,2763
37543,128875,123723,3355
37554,128893,123723,2007
37564,128901,123727,1627
37574,128897,123725,1584
37584,128902,123719,1645
37594,128899,123733,1731
37604,128913,123746,1681
37614,128901,123747,1713
37624,128924,123764,1786
37634,128935,123766,1743
37644,128916,123774,1754
37654,128914,123753,1789
37664,128909,123723,1875
37675,128898,123726,1843
37685,128902,123714,1937
37695,128901,123720,1936
37705,128894,123718,1991
37715,128907,123735,2031
37725,128906,123734,1999
37735,128868,123722,2042
37745,128838,123716,2016
37755,128794,123698,1997
37765,128749,123658,1948
37775,128701,123646,1872
37786,128691,123634,1895
37796,128655,123628,1829
37806,128654,123620,1725
37816,128640,123615,1862
37826,128627,123599,1839
37836,128623,123613,1753
37846,128619,123619,1751
37856,128632,123631,1829
37866,128623,123625,1783
37876,128617,123633,1840
37886,128626,123611,1879
37896,128610,123603,1881
37907,128633,123597,1902
37917,128636,123604,1943
37927,128642,123603,1908
37937,128648,123604,1874
37947,128676,123624,1925
37957,128685,123635,1956
37967,128704,123652,1921
37977,128726,123657,1950
37987,128745,123658,1949
37997,128721,123651,1922
38007,128721,123629,2021
38017,128688,123597,1973
38028,128692,123568,2147
38038,128674,123554,2168
38048,128651,123549,2193
38058,128658,123538,2042
38068,128656,123543,2078
38078,128663,123568,2022
38088,128694,123585,1931
38098,128705,123608,1998
38108,128721,123618,1948
38118,128739,123626,1959
38128,128745,123611,1900
38139,128749,123613,1887
38149,128769,123635,2180
38159,128782,123636,2897
38169,128798,123643,3622
38179,128804,123648,2288
38189,128802,123655,1770
38199,128808,123642,1797
38209,128816,123640,1797
38219,128805,123645,1796
38229,128802,123632,1783
38239,128803,123633,1775
38250,128813,123636,1863
38260,128843,123645,1851
38270,128843,123641,1859
38280,128844,123626,1884
38290,128835,123617,1917
38300,128826,123620,1947
38310,128829,123629,2013
38320,128836,123610,1973
38330,128842,123630,2043
38340,128848,123637,2075
38350,128827,123623,2103
38360,128798,123632,2071
38371,128785,123602,2032
38381,128760,123600,2064
38391,128715,123583,1983
38401,128684,123579,1928
38411,128660,123552,1905
38421,128622,123564,1829
38431,128609,123561,1817
38441,128598,123564,1806
38451,128598,123575,1787
38461,128600,123579,1778
38471,128598,123576,1737
38482,128621,123585,1783
38492,128644,123602,1857
38502,128685,123619,1723
38512,128676,123621,1830
38522,128700,123636,1720
38532,128705,123648,1790
38542,128706,123664,1845
38552,128730,123677,1804
38562,128737,123679,1772
38572,128758,123686,1855
38582,128753,123681,1776
38592,128754,123676,1762
38603,128780,123664,1776
38613,128780,123665,1871
38623,128781,123682,1855
38633,128781,123671,1959
38643,128778,123676,1886
38653,128805,123689,1895
38663,128793,123689,1776
38673,128811,123717,1787
38683,128837,123723,1729
38693,128825,123729,1681
38703,128829,123708,1689
38714,128841,123702,1774
38724,128855,123696,1709
38734,128867,123724,1789
38744,128885,123738,2063
38754,128911,123751,2799
38764,128935,123785,3329
38774,128940,123775,2221
38784,128953,123772,1659
38794,128965,123803,1626
38804,128965,123785,1715
38814,128978,123778,1682
38824,128980,123779,1715
38835,129009,123789,1701
38845,129036,123801,1759
38855,129033,123795,1738
38865,129070,123814,1831
38875,129064,123790,1793
38885,129064,123782,1751
38895,129052,123780,1861
38905,129068,123783,1865
38915,129067,123792,1889
38925,129090,123804,1934
38935,129086,123800,2012
38946,129094,123801,1884
38956,129069,123788,1906
38966,129045,123769,1961
38976,128992,123752,1829
38986,128959,123728,1760
38996,128907,123717,1757
39006,128877,123720,1787
39016,128861,123721,1672
39026,128845,123728,1650
39036,128843,123724,1584
39046,128837,123733,1642
39056,128849,123737,1599
39067,128869,123741,1643
39077,128890,123765,1584
39087,128892,123759,1697
39097,128900,123754,1642
39107,128910,123751,1650
39117,128904,123764,1579
39127,128907,123770,1668
39137,128908,123771,1648
39147,128913,123775,1642
39157,128908,123770,1690
39167,128910,123772,1607
39178,128946,123783,1633
39188,128957,123791,1671
39198,128959,123800,1672
39208,128971,123807,1689
39218,128987,123806,1741
39228,128971,123824,1789
39238,128956,123805,1786
39248,128959,123818,1750
39258,128947,123800,1677
39268,128936,123808,1605
39278,128940,123781,1628
39288,128912,123780,1533
39299,128945,123780,1614
39309,128957,123801,1585
39319,128966,123811,1535
39329,128983,123832,1582
39339,129014,123832,1661
39349,129023,123852,1988
39359,129030,123864,2831
39369,129042,123863,3082
39379,129051,123866,1867
39389,129040,123865,1494
39399,129039,123857,1487
39410,129057,123853,1558
39420,129070,123857,1565
39430,129088,123870,1509
39440,129086,123862,1479
39450,129107,123869,1635
39460,129093,123865,1521
39470,129094,123874,1615
39480,129108,123881,1635
39490,129107,123872,1679
39500,129117,123886,1689
39510,129136,123892,1719
39520,129144,123901,1794
39531,129177,123910,1826
39541,129187,123904,1828
39551,129157,123891,1867
39561,129128,123857,1893
39571,129068,123836,1903
39581,129020,123821,1871
39591,128971,123805,1863
39601,128935,123790,1743
39611,128911,123791,1781
39621,128894,123784,1733
39631,128880,123772,1754
39642,128878,123761,1712
39652,128883,123748,1711
39662,128881,123748,1781
39672,128874,123743,1750
39682,128885,123755,1839
39692,128886,123755,1855
39702,128869,123746,1893
39712,128883,123757,1886
39722,128885,123758,1869
39732,128891,123752,1853
39742,128893,123749,1953
39752,128892,123759,1901
39763,128928,123759,1947
39773,128950,123775,1982
39783,128960,123753,1961
39793,128961,123770,1936
39803,128959,123778,1907
39813,128968,123772,1929
39823,128951,123758,1901
39833,128955,123789,2002
39843,128943,123779,2000
39853,128939,123773,1971
39863,128922,123765,2127
39874,128946,123758,2021
39884,128962,123776,1973
39894,128944,123781,1970
39904,128959,123791,1860
39914,128977,123813,1840
39924,128986,123825,1825
39934,129005,123835,1857
39944,129008,123832,1817
39954,129010,123840,1885
39964,129016,123839,2073
39974,129028,123836,2441
39984,129030,123821,3627
39995,129039,123815,2773
40005,129051,123827,1904
40015,129064,123826,1660
40025,129062,123826,1831
40035,129075,123813,1776
40045,129069,123830,1781
40055,129071,123830,1745
40065,129089,123848,1774
40075,129096,123865,1793
40085,129102,123858,1827
40095,129093,123869,1797
40106,129120,123858,1833
40116,129134,123860,1803
40126,129115,123862,1801
40136,129133,123855,1861
40146,129127,123852,1889
40156,129104,123851,1877
40166,129063,123821,1822
40176,129045,123814,1804
40186,129000,123802,1780
40196,128939,123776,1796
40206,128901,123755,1742
40216,128860,123740,1712
40227,128834,123737,1597
40237,128833,123723,1498
40247,128798,123705,1466
40257,128797,123709,1392
40267,128776,123702,1450
40277,128764,123714,1434
40287,128761,123714,1339
40297,128766,123726,1461
40307,128776,123715,1419
40317,128773,123716,1360
40327,128769,123714,1447
40338,128795,123708,1424
40348,128801,123708,1410
40358,128799,123726,1419
40368,128826,123740,1333
40378,128841,123762,1421
40388,128867,123800,1445
40398,128899,123807,1344
40408,128921,123812,1360
40418,128912,123796,1345
40428,128900,123786,1327
40438,128890,123767,1373
40449,128902,123764,1313
40459,128917,123759,1346
40469,128916,123769,1421
40479,128918,123773,1460
40489,128904,123777,1461
40499,128918,123801,1383
40509,128926,123807,1322
40519,128960,123841,1337
40529,128975,123861,1211
40539,129006,123876,1257
40549,129032,123892,1289
40559,129036,123861,1219
40570,129048,123872,1245
40580,129070,123879,1456
40590,129069,123884,1673
40600,129083,123889,2479
40610,129100,123893,2768
40620,129109,123888,1615
40630,129111,123893,1259
40640,129114,123899,1388
40650,129128,123879,1393
40660,129125,123885,1341
40670,129129,123883,1439
40681,129146,123874,1487
40691,129157,123889,1523
40701,129168,123894,1612
40711,129181,123906,1642
40721,129188,123915,1723
40731,129217,123939,1850
40741,129223,123946,1829
40751,129237,123956,1913
40761,129247,123967,2000
40771,129234,123961,2065
40781,129229,123935,2081
40791,129189,123916,2154
40802,129165,123881,2161
40812,129120,123857,2238
40822,129076,123830,2256
40832,129011,123786,2224
40842,128962,123769,2195
40852,128920,123746,2246
40862,128885,123722,2295
40872,128860,123709,2241
40882,128827,123723,2256
40892,128830,123713,2320
40902,128830,123712,2324
40913,128849,123712,2336
40923,128857,123712,2436
40933,128871,123730,2527
40943,128867,123729,2512
40953,128864,123705,2482
40963,128841,123702,2543
40973,128843,123697,2555
40983,128841,123698,2615
40993,128838,123710,2625
41003,128850,123720,2599
41013,128851,123736,2673
41023,128864,123732,2641
41034,128886,123750,2559
41044,128897,123760,2609
41054,128912,123752,2663
41064,128903,123770,2703
41074,128905,123743,2739
41084,128882,123735,2800
41094,128876,123733,2759
41104,128876,123760,2880
41114,128882,123762,2834
41124,128889,123772,2665
41134,128888,123793,2740
41145,128920,123804,2643
41155,128955,123814,2585
41165,128980,123838,2559
41175,128986,123845,2625
41185,128998,123851,2559
41195,129015,123854,2511
41205,129014,123850,2624
41215,129017,123845,2898
41225,129013,123849,4095
41235,129022,123851,4095
41245,129027,123855,2679
41255,129032,123859,2304
41266,129059,123850,2386
41276,129076,123856,2304
41286,129093,123869,2325
41296,129103,123861,2261
41306,129113,123878,2288
41316,129104,123899,2281
41326,129129,123884,2288
41336,129147,123911,2299
41346,129157,123934,2305
41356,129172,123927,2247
41366,129168,123949,2306
41377,129203,123958,2359
41387,129221,123959,2319
41397,129226,123968,2235
41407,129228,123944,2377
41417,129195,123920,2349
41427,129154,123921,2331
41437,129097,123898,2330
41447,129067,123886,2181
41457,129035,123892,2192
41467,129014,123877,2118
41477,128986,123871,1989
41487,128966,123871,2100
41498,128962,123838,1983
41508,128955,123828,2062
41518,128954,123835,1984
41528,128951,123831,2065
41538,128955,123839,2097
41548,128974,123866,2073
41558,128984,123872,2128
41568,128996,123875,2207
41578,128985,123881,2155
41588,128990,123875,2237
41598,128989,123872,2290
41609,128982,123874,2259
41619,129003,123871,2319
41629,129020,123908,2303
41639,129054,123910,2352
41649,129056,123926,2412
41659,129061,123929,2347
41669,129071,123956,2448
41679,129069,123941,2465
41689,129049,123944,2486
41699,129046,123955,2511
41709,129054,123958,2444
41719,129038,123944,2559
41730,129053,123944,2713
41740,129059,123932,2806
41750,129044,123927,2833
41760,129046,123929,3026
41770,129041,123926,3124
41780,129037,123947,3070
41790,129037,123948,3120
41800,129057,123939,3202
41810,129055,123954,3248
41820,129044,123942,3282
41830,129051,123947,3344
41841,129060,123962,3439
41851,129095,123956,3391
41861,129086,123963,3633
41871,129115,123962,4095
41881,129107,123966,4095
41891,129101,123955,4095
41901,129093,123956,4095
41911,129084,123941,4095
41921,129070,123945,3444
41931,129073,123949,3386
41941,129081,123940,3399
41951,129072,123947,3391
41962,129083,123937,3302
41972,129088,123924,3315
41982,129088,123936,3088
41992,129092,123934,3189
42002,129097,123926,3071
42012,129081,123924,3085
42022,129067,123913,3094
42032,129056,123902,3068
42042,129047,123885,2953
42052,129052,123884,2883
42062,129027,123867,2952
42072,128994,123846,2853
42083,128959,123818,2815
42093,128929,123804,2640
42103,128886,123774,2620
42113,128836,123775,2421
42123,128805,123762,2369
42133,128777,123757,2193
42143,128752,123741,2111
42153,128747,123730,2111
42163,128718,123726,1982
42173,128721,123727,1897
42183,128698,123712,1851
42194,128736,123733,1765
42204,128739,123726,1732
42214,128742,123737,1751
42224,128739,123732,1719
42234,128742,123725,1733
42244,128731,123721,1715
42254,128707,123708,1649
42264,128716,123715,1649
42274,128725,123707,1649
42284,128712,123709,1677
42294,128706,123683,1732
42304,128705,123691,1600
42315,128727,123681,1679
42325,128732,123669,1612
42335,128734,123688,1646
42345,128742,123693,1566
42355,128741,123676,1557
42365,128741,123670,1532
42375,128725,123663,1521
42385,128724,123671,1487
42395,128711,123662,1567
42405,128722,123650,1504
42415,128706,123625,1531
42425,128713,123632,1597
42436,128722,123637,1535
42446,128749,123675,1568
42456,128761,123686,1517
42466,128788,123696,1477
42476,128798,123708,1425
42486,128804,123720,1351
42496,128833,123739,1353
42506,128840,123741,1408
42516,128844,123748,1383
42526,128844,123749,1338
42536,128840,123730,1488
42546,128836,123727,1535
42557,128846,123735,1904
42567,128854,123720,2960
42577,128863,123735,2637
42587,128870,123727,1633
42597,128879,123724,1357
42607,128859,123740,1518
42617,128884,123724,1499
42627,128868,123736,1488
42637,128873,123734,1486
42647,128878,123728,1532
42657,128874,123717,1418
42668,128860,123691,1612
42678,128868,123697,1535
42688,128868,123694,1579
42698,128865,123693,1642
42708,128878,123696,1737
42718,128873,123710,1725
42728,128881,123711,1802
42738,128868,123703,1783
42748,128859,123706,1800
42758,128830,123695,1765
42768,128809,123677,1888
42778,128760,123667,1812
42789,128731,123648,1797
42799,128700,123642,1767
42809,128675,123635,1650
42819,128640,123626,1616
42829,128620,123620,1554
42839,128606,123631,1549
42849,128583,123626,1532
42859,128578,123618,1535
42869,128587,123637,1510
42879,128580,123629,1572
42889,128590,123639,1535
42899,128581,123635,1507
42910,128591,123637,1535
42920,128602,123640,1601
42930,128607,123639,1569
42940,128613,123628,1595
42950,128604,123614,1635
42960,128607,123616,1648
42970,128607,123627,1649
42980,128629,123635,1616
42990,128622,123650,1600
43000,128635,123641,1641
43010,128644,123632,1605
43021,128668,123630,1626
43031,128668,123631,1596
43041,128652,123613,1629
43051,128657,123606,1651
43061,128640,123610,1587
43071,128649,123623,1654
43081,128639,123624,1687
43091,128659,123631,1690
43101,128660,123636,1727
43111,128668,123638,1739
43121,128671,123640,1808
43131,128671,123632,1710
43142,128670,123610,1678
43152,128696,123637,1569
43162,128702,123646,1609
43172,128734,123650,1583
43182,128746,123657,1566
43192,128741,123653,1648
43202,128750,123666,1632
43212,128751,123665,1697
43222,128759,123646,1968
43232,128757,123638,2686
43242,128763,123637,3235
43253,128779,123627,2031
43263,128785,123617,1598
43273,128785,123623,1597
43283,128796,123610,1653
43293,128790,123612,1584
43303,128790,123630,1633
43313,128778,123619,1680
43323,128792,123603,1717
43333,128783,123627,1728
43343,128776,123624,1763
43353,128788,123623,1776
43363,128795,123625,1713
43374,128816,123628,1851
43384,128822,123633,1854
43394,128831,123628,1799
43404,128845,123627,1916
43414,128829,123615,1942
43424,128794,123618,1919
43434,128775,123619,1935
43444,128744,123586,1909
43454,128703,123592,1950
43464,128665,123573,1941
43474,128614,123533,1844
43484,128580,123519,1794
43495,128567,123513,1805
43505,128561,123528,1776
43515,128563,123522,1761
43525,128563,123539,1741
43535,128579,123555,1747
43545,128570,123564,1771
43555,128583,123567,1758
43565,128587,123583,1835
43575,128589,123599,1867
43585,128615,123623,1844
43595,128603,123624,1870
43606,128640,123620,1851
43616,128646,123617,1904
43626,128653,123621,1872
43636,128679,123639,1919
43646,128676,123648,1904
43656,128665,123653,1939
43666,128678,123654,1936
43676,128691,123658,1841
43686,128704,123668,1926
43696,128689,123688,1911
43706,128707,123685,1936
43716,128718,123684,1899
43727,128732,123699,1898
43737,128739,123722,1931
43747,128745,123712,2014
43757,128752,123717,2001
43767,128759,123721,2106
43777,128765,123711,2112
43787,128773,123710,2179
43797,128753,123715,2045
43807,128777,123718,2004
43817,128768,123708,1959
43827,128774,123708,1931
43838,128792,123712,1874
43848,128822,123711,1966
43858,128813,123713,1889
43868,128835,123708,1977
43878,128843,123704,2100
43888,128841,123688,2416
43898,128828,123681,3381
43908,128830,123676,3201
43918,128840,123694,2128
43928,128824,123685,1762
43938,128835,123699,1924
43948,128847,123702,1909
43959,128880,123711,1902
43969,128903,123730,1822
43979,128909,123748,1809
43989,128932,123741,1925
43999,128931,123746,1904
44009,128924,123732,1970
44019,128933,123735,2013
44029,128933,123733,2000
44039,128936,123727,2065
44049,128910,123726,2003
44059,128931,123713,2090
44070,128957,123722,2066
44080,128964,123715,2160
44090,128948,123719,2170
44100,128921,123696,2137
44110,128872,123680,2154
44120,128857,123663,2162
44130,128797,123646,2073
44140,128775,123620,2019
44150,128722,123623,1945
44160,128689,123586,1915
44170,128665,123569,1901
44180,128645,123552,1886
44191,128650,123550,1831
44201,128663,123545,1904
44211,128640,123564,1887
44221,128662,123574,1872
44231,128674,123574,1846
44241,128693,123596,1917
44251,128673,123591,1872
44261,128692,123587,1851
44271,128676,123588,1872
44281,128680,123599,1903
44291,128691,123600,1938
44302,128717,123611,1863
44312,128722,123600,1947
44322,128743,123615,1841
44332,128740,123606,1897
44342,128735,123600,1875
44352,128722,123585,1898
44362,128696,123576,1951
44372,128687,123571,1907
44382,128683,123572,1921
44392,128678,123580,1901
44402,128676,123602,1936
44412,128678,123580,1987
44423,128684,123588,1995
44433,128705,123597,1986
44443,128716,123628,2014
44453,128740,123628,2085
44463,128744,123636,1955
44473,128751,123659,1877
44483,128780,123653,1893
44493,128778,123657,1914
44503,128784,123665,1853
44513,128777,123637,1834
44523,128766,123640,1920
44534,128781,123641,1938
44544,128791,123634,2091
44554,128814,123646,2426
44564,128814,123659,3761
44574,128832,123678,2977
44584,128847,123705,1942
44594,128842,123697,1745
44604,128853,123682,1879
44614,128843,123691,1794
44624,128862,123688,1903
44634,128840,123670,1867
44644,128833,123666,1891
44655,128870,123659,1911
44665,128871,123660,1925
44675,128883,123673,1895
44685,128894,123668,1923
44695,128887,123661,1983
44705,128890,123673,1923
44715,128893,123672,2113
44725,128903,123692,2029
44735,128913,123695,1968
44745,128906,123682,2101
44755,128903,123657,2060
44766,128877,123640,2007
44776,128840,123632,2083
44786,128801,123625,1971
44796,128771,123589,2029
44806,128732,123577,1869
44816,128692,123571,1815
44826,128648,123553,1787
44836,128648,123556,1776
44846,128620,123540,1748
44856,128628,123545,1767
44866,128611,123544,1741
44877,128642,123537,1755
44887,128644,123529,1779
44897,128673,123550,1788
44907,128677,123560,1806
44917,128684,123546,1788
44927,128673,123550,1802
44937,128654,123530,1741
44947,128669,123536,1782
44957,128664,123538,1822
44967,128675,123531,1840
44977,128674,123522,1897
44987,128679,123523,1795
44998,128678,123516,1808
45008,128707,123513,1785
45018,128697,123520,1872
45028,128709,123509,1809
45038,128697,123506,1858
45048,128690,123503,1898
45058,128679,123510,1874
45068,128681,123521,1853
45078,128674,123535,1935
45088,128668,123510,1915
45098,128670,123521,1858
45109,128681,123514,1849
45119,128704,123520,1802
45129,128709,123535,1748
45139,128725,123541,1768
45149,128741,123546,1745
45159,128744,123567,1729
45169,128761,123582,1776
45179,128773,123581,1729
45189,128769,123580,2196
45199,128783,123583,2891
45209,128772,123573,3265
45219,128772,123564,2055
45230,128786,123569,1652
45240,128798,123588,1680
45250,128811,123588,1712
45260,128813,123606,1714
45270,128832,123595,1708
45280,128816,123584,1727
45290,128802,123586,1760
45300,128809,123613,1758
45310,128827,123613,1793
45320,128840,123622,1857
45330,128840,123613,1805
45341,128848,123600,1884
45351,128865,123604,1956
45361,128864,123617,1978
45371,128872,123600,1917
45381,128855,123601,1981
45391,128848,123606,2038
45401,128807,123568,2044
45411,128771,123549,2032
45421,128733,123540,2007
45431,128687,123509,1936
45441,128637,123485,1953
45452,128593,123457,1851
45462,128574,123448,1791
45472,128566,123437,1763
45482,128537,123443,1727
45492,128538,123453,1735
45502,128532,123450,1777
45512,128534,123464,1675
45522,128547,123476,1794
45532,128553,123487,1707
45542,128564,123492,1763
45552,128572,123500,1755
45562,128571,123502,1791
45573,128597,123500,1839
45583,128615,123484,1812
45593,128603,123485,1789
45603,128607,123471,1745
45613,128601,123473,1781
45623,128609,123480,1809
45633,128600,123478,1799
45643,128599,123459,1771
45653,128600,123463,1805
45663,128588,123452,1821
45673,128588,123437,1776
45684,128587,123446,1847
45694,128598,123442,1973
45704,128595,123443,1924
45714,128607,123443,1969
45724,128608,123451,1989
45734,128609,123452,1900
45744,128600,123455,1920
45754,128604,123459,1825
45764,128624,123470,1837
45774,128641,123472,1835
45784,128655,123482,1789
45794,128662,123479,1847
45805,128692,123485,1858
45815,128717,123492,1936
45825,128743,123527,2374
45835,128766,123525,3706
45845,128777,123524,3015
45855,128778,123526,2039
45865,128760,123515,1743
45875,128764,123519,1925
45885,128779,123526,1836
45895,128761,123518,1898
45905,128765,123516,1859
45916,128795,123526,1966
45926,128811,123521,1888
45936,128839,123545,1955
45946,128840,123559,1970
45956,128869,123563,1975
45966,128875,123586,2033
45976,128897,123596,1981
45986,128877,123575,2134
45996,128881,123597,2177
46006,128869,123578,2132
46016,128849,123582,2176
46026,128834,123562,2170
46037,128815,123551,2140
46047,128797,123533,2161
46057,128758,123530,2136
46067,128725,123501,2020
46077,128683,123498,2023
46087,128650,123496,1921
46097,128631,123488,1933
46107,128616,123499,1827
46117,128623,123509,1785
46127,128625,123516,1895
46137,128622,123508,1792
46147,128630,123513,1823
46158,128644,123509,1821
46168,128659,123534,1770
46178,128659,123530,1790
46188,128671,123537,1776
46198,128673,123525,1837
46208,128665,123535,1843
46218,128673,123527,1776
46228,128680,123555,1763
46238,128689,123575,1873
46248,128690,123566,1809
46258,128678,123561,1817
46269,128703,123575,1808
46279,128715,123562,1779
46289,128702,123561,1812
46299,128710,123561,1783
46309,128693,123557,1840
46319,128682,123554,1905
46329,128645,123532,1923
46339,128643,123523,1898
46349,128630,123546,1802
46359,128645,123538,1830
46369,128646,123544,1721
46380,128659,123525,1735
46390,128663,123524,1750
46400,128671,123533,1743
46410,128703,123559,1763
46420,128728,123557,1749
46430,128726,123573,1961
46440,128761,123584,2460
46450,128760,123593,3753
46460,128780,123609,2863
46470,128792,123611,1810
46480,128805,123610,1669
46490,128800,123619,1722
46501,128829,123612,1778
46511,128832,123610,1728
46521,128850,123613,1730
46531,128851,123596,1789
46541,128843,123595,1748
46551,128843,123611,1851
46561,128846,123599,1829
46571,128864,123599,1820
46581,128863,123614,1776
46591,128871,123617,1930
46601,128875,123617,1899
46612,128889,123636,1933
46622,128910,123615,1934
46632,128909,123605,2040
46642,128873,123587,1983
46652,128847,123566,1909
46662,128798,123555,1914
46672,128736,123513,1887
46682,128699,123493,1919
46692,128655,123481,1766
46702,128626,123463,1697
46712,128604,123456,1729
46722,128577,123439,1703
46733,128588,123446,1626
46743,128586,123448,1623
46753,128604,123452,1635
46763,128614,123474,1593
46773,128634,123477,1643
46783,128622,123490,1615
46793,128617,123492,1684
46803,128625,123505,1680
46813,128641,123507,1633
46823,128621,123497,1601
46833,128620,123480,1613
46844,128621,123475,1641
46854,128645,123480,1639
46864,128631,123497,1680
46874,128623,123480,1662
46884,128628,123454,1693
46894,128622,123470,1759
46904,128602,123470,1682
46914,128602,123447,1690
46924,128596,123455,1794
46934,128589,123448,1777
46944,128583,123436,1844
46955,128589,123435,1968
46965,128584,123431,1940
46975,128591,123436,1896
46985,128583,123438,1966
46995,128588,123437,1903
47005,128589,123444,1940
47015,128587,123457,1985
47025,128594,123465,2035
47035,128610,123476,2082
47045,128610,123482,1981
47055,128620,123490,2205
47065,128607,123484,2546
47076,128643,123473,4086
47086,128648,123490,3503
47096,128670,123500,2210
47106,128679,123496,1930
47116,128675,123494,2022
47126,128677,123496,2059
47136,128682,123502,2032
47146,128679,123520,1995
47156,128693,123524,1985
47166,128704,123521,1985
47176,128703,123524,1945
47187,128735,123529,1980
47197,128750,123523,1924
47207,128761,123535,2007
47217,128762,123533,1975
47227,128766,123531,1999
47237,128760,123537,2008
47247,128768,123517,2023
47257,128744,123530,2114
47267,128728,123514,2002
47277,128697,123496,2045
47287,128643,123467,2039
47298,128616,123441,2007
47308,128590,123423,1895
47318,128556,123408,1918
47328,128525,123378,1777
47338,128490,123369,1783
47348,128460,123355,1744
47358,128438,123354,1703
47368,128434,123359,1744
47378,128444,123360,1744
47388,128434,123363,1715
47398,128452,123369,1659
47408,128445,123357,1847
47419,128454,123354,1710
47429,128473,123363,1821
47439,128464,123367,1840
47449,128487,123366,1882
47459,128491,123370,1853
47469,128500,123387,1867
47479,128508,123380,1855
47489,128520,123379,1925
47499,128538,123382,1837
47509,128525,123366,1850
47519,128517,123346,1834
47530,128527,123350,1805
47540,128545,123334,1792
47550,128530,123319,1757
47560,128509,123299,1763
47570,128494,123287,1803
47580,128486,123294,1769
47590,128473,123286,1747
47600,128477,123288,1830
47610,128478,123277,1682
47620,128480,123266,1667
47630,128477,123248,1531
47640,128458,123229,1489
47651,128457,123207,1459
47661,128460,123219,1402
47671,128456,123205,1407
47681,128458,123219,1472
47691,128467,123220,1423
47701,128469,123240,1633
47711,128497,123242,1965
47721,128492,123240,3004
47731,128496,123251,2151
47741,128505,123260,1233
47751,128508,123246,1145
47762,128526,123247,1192
47772,128544,123275,1157
47782,128566,123286,1102
47792,128582,123287,1075
47802,128591,123316,1147
47812,128579,123341,1184
47822,128606,123341,1203
47832,128619,123367,1200
47842,128643,123375,1153
47852,128667,123393,1163
47862,128659,123388,1180
47873,128666,123368,1256
47883,128669,123360,1312
47893,128652,123346,1339
47903,128602,123326,1334
47913,128581,123302,1386
47923,128549,123274,1280
47933,128492,123256,1264
47943,128442,123245,1332
47953,128413,123241,1211
47963,128370,123224,1250
47973,128335,123209,1199
47983,128311,123197,1016
47994,128302,123194,1212
48004,128323,123203,1095
48014,128308,123200,1062
48024,128311,123203,1072
48034,128310,123200,1142
48044,128306,123206,1197
48054,128309,123217,1184
48064,128317,123228,1116
48074,128340,123239,1119
48084,128350,123249,1165
48094,128349,123244,1112
48105,128365,123255,1198
48115,128404,123244,1164
48125,128388,123270,1165
48135,128424,123262,1224
48145,128428,123260,1152
48155,128426,123273,1265
48165,128433,123283,1189
48175,128431,123277,1211
48185,128447,123283,1215
48195,128447,123292,1367
48205,128446,123275,1335
48215,128434,123263,1403
48226,128437,123259,1460
48236,128449,123272,1306
48246,128453,123267,1327
48256,128460,123268,1314
48266,128468,123281,1229
48276,128469,123283,1264
48286,128472,123287,1291
48296,128483,123295,1287
48306,128501,123311,1233
48316,128517,123309,1268
48326,128519,123334,1616
48337,128556,123330,2225
48347,128591,123355,2885
48357,128616,123359,1841
48367,128616,123376,1233
48377,128643,123374,1232
48387,128639,123380,1281
48397,128661,123379,1196
48407,128652,123399,1337
48417,128669,123423,1358
48427,128683,123419,1398
48437,128688,123410,1455
48448,128718,123422,1480
48458,128735,123433,1439
48468,128745,123436,1535
48478,128760,123437,1513
48488,128776,123436,1662
48498,128763,123432,1744
48508,128757,123451,1680
48518,128761,123452,1776
48528,128768,123465,1857
48538,128748,123461,1743
48548,128716,123453,1781
48558,128676,123440,1856
48569,128655,123416,1744
48579,128621,123398,1689
48589,128571,123378,1689
48599,128536,123356,1648
48609,128528,123342,1616
48619,128484,123341,1651
48629,128476,123357,1668
48639,128477,123369,1610
48649,128496,123386,1608
48659,128505,123401,1641
48669,128504,123403,1683
48680,128527,123405,1727
48690,128530,123404,1648
48700,128540,123431,1686
48710,128550,123420,1712
48720,128552,123426,1728
48730,128560,123448,1758
48740,128554,123444,1712
48750,128580,123475,1792
48760,128583,123461,1789
48770,128582,123456,1807
48780,128581,123452,1759
48790,128563,123444,1822
48801,128572,123441,1639
48811,128573,123430,1882
48821,128572,123443,1845
48831,128559,123427,1914
48841,128564,123435,1866
48851,128559,123466,1936
48861,128561,123458,2005
48871,128585,123462,1919
48881,128596,123478,1809
48891,128594,123464,1846
48901,128569,123454,1797
48912,128587,123448,1811
48922,128590,123444,1720
48932,128610,123458,1842
48942,128622,123462,1792
48952,128633,123469,1782
48962,128647,123496,2080
48972,128651,123498,2635
48982,128676,123506,3519
48992,128686,123510,2588
49002,128706,123521,1801
49012,128709,123504,1678
49022,128714,123503,1746
49033,128722,123481,1717
49043,128747,123481,1773
49053,128753,123494,1712
49063,128757,123495,1769
49073,128762,123506,1800
49083,128777,123534,1785
49093,128780,123510,1830
49103,128788,123540,1835
49113,128810,123551,1830
49123,128816,123559,1879
49133,128824,123561,1914
49144,128838,123577,2006
49154,128859,123566,1931
49164,128841,123555,2010
49174,128823,123537,2063
49184,128797,123532,2039
49194,128745,123522,1978
49204,128701,123495,1931
49214,128656,123480,1912
49224,128609,123467,1888
49234,128591,123454,1831
49244,128576,123433,1740
49254,128556,123431,1835
49265,128538,123427,1786
49275,128551,123422,1703
49285,128544,123420,1836
49295,128553,123401,1716
49305,128558,123405,1773
49315,128531,123438,1738
49325,128530,123417,1784
49335,128541,123442,1821
49345,128546,123462,1808
49355,128546,123458,1744
49365,128552,123458,1841
49376,128574,123458,1850
49386,128586,123443,1765
49396,128586,123451,1829
49406,128594,123459,1846
49416,128588,123446,1825
49426,128584,123449,1807
49436,128585,123440,1827
49446,128566,123441,1757
49456,128560,123431,1849
49466,128556,123435,1798
49476,128541,123425,1854
49486,128527,123405,1846
49497,128537,123399,1881
49507,128552,123409,1953
49517,128543,123406,1996
49527,128561,123407,1891
49537,128565,123406,1846
49547,128557,123415,1794
49557,128562,123430,1728
49567,128579,123448,1776
49577,128585,123454,1751
49587,128603,123474,1765
49597,128616,123481,1736
49607,128631,123497,1761
49618,128659,123497,2143
49628,128687,123525,2865
49638,128697,123526,3475
49648,128720,123537,2209
49658,128698,123521,1722
49668,128699,123520,1693
49678,128696,123512,1768
49688,128705,123527,1676
49698,128719,123524,1689
49708,128700,123518,1767
49718,128709,123514,1792
49729,128716,123518,1744
49739,128724,123517,1840
49749,128749,123521,1867
49759,128754,123526,1841
49769,128755,123526,1918
49779,128766,123523,1961
49789,128746,123522,1982
49799,128755,123501,2093
49809,128723,123502,2056
49819,128708,123502,2125
49829,128674,123474,2110
49839,128641,123447,2019
49850,128620,123436,2085
49860,128583,123412,2046
49870,128528,123402,1930
49880,128507,123393,1998
49890,128479,123386,1922
49900,128451,123385,1857
49910,128439,123378,1818
49920,128428,123362,1872
49930,128429,123374,1819
49940,128437,123373,1813
49950,128438,123384,1869
49961,128443,123391,1859
49971,128466,123371,1883
49981,128465,123373,1904
49991,128445,123362,1903
50001,128446,123360,1902
50011,128438,123372,1871
50021,128434,123361,1839
50031,128456,123362,1897
50041,128450,123355,1916
50051,128449,123366,1968
50061,128452,123357,1946
50071,128452,123326,1904
50082,128453,123323,1861
50092,128468,123328,1875
50102,128482,123324,1888
50112,128462,123319,1846
50122,128458,123312,1911
50132,128451,123311,1872
50142,128444,123294,1893
50152,128444,123313,1974
50162,128462,123326,1904
50172,128477,123335,2032
50182,128485,123336,2038
50193,128521,123358,1968
50203,128541,123374,1934
50213,128562,123399,1862
50223,128579,123398,1865
50233,128577,123396,1849
50243,128575,123399,1873
50253,128573,123404,1833
50263,128586,123404,1881
50273,128604,123416,1857
50283,128606,123426,2128
50293,128628,123445,2553
50303,128668,123453,3801
50314,128685,123476,2606
50324,128722,123477,1839
50334,128729,123494,1728
50344,128731,123493,1875
50354,128744,123503,1808
50364,128741,123495,1767
50374,128746,123495,1809
50384,128747,123507,1884
50394,128737,123496,1913
50404,128756,123507,1880
50414,128746,123489,1898
50425,128748,123487,1844
50435,128773,123487,1951
50445,128782,123498,1969
50455,128778,123488,2003
50465,128783,123489,2039
50475,128760,123483,2096
50485,128735,123468,2110
50495,128709,123457,2064
50505,128664,123452,2073
50515,128612,123420,2033
50525,128575,123403,2000
50535,128511,123380,1957
50546,128492,123369,1958
50556,128454,123357,1939
50566,128445,123361,1792
50576,128420,123349,1797
50586,128401,123360,1776
50596,128394,123352,1786
50606,128389,123342,1717
50616,128381,123348,1895
50626,128378,123336,1780
50636,128372,123330,1789
50646,128377,123338,1828
50657,128389,123337,1822
50667,128400,123349,1910
50677,128413,123366,1749
50687,128429,123382,1747
50697,128454,123389,1851
50707,128466,123410,1891
50717,128478,123401,1733
50727,128475,123394,1953
50737,128476,123396,1855
50747,128478,123381,1828
50757,128459,123370,1852
50768,128484,123375,1826
50778,128486,123361,1863
50788,128486,123381,1810
50798,128478,123376,1914
50808,128472,123367,2010
50818,128473,123358,1967
50828,128475,123355,2038
50838,128482,123361,2041
50848,128476,123350,1942
50858,128472,123339,1877
50868,128478,123332,1848
50878,128476,123335,1798
50889,128492,123323,1936
50899,128506,123325,1847
50909,128512,123330,1823
50919,128530,123337,1795
50929,128551,123348,1871
50939,128568,123384,2160
50949,128580,123390,2765
50959,128603,123398,3442
50969,128596,123395,2310
50979,128615,123385,1836
50989,128616,123382,1756
51000,128633,123382,1780
51010,128658,123390,1759
51020,128653,123401,1743
51030,128692,123413,1850
51040,128701,123423,1883
51050,128703,123440,1904
51060,128705,123457,1844
51070,128716,123446,1950
51080,128724,123463,1953
51090,128731,123468,1967
51100,128741,123462,1987
51110,128736,123486,2032
51121,128769,123475,2072
51131,128782,123485,2054
